0.5 
0.649318 
0.78384 
0.890376 
0.958762 
0.982937 
0.961538 
0.897972 
0.79994 
0.678492 
0.546718 
0.41825 
0.305729 
0.219442 
0.166278 
0.149103 
0.166648 
0.213875 
0.282793 
0.36358 
0.445892 
0.520171 
0.578792 
0.616913 
0.632924 
0.628449 
0.607917 
0.577764 
0.545386 
0.517984 
0.501471 
0.499571 
0.513253 
0.540561 
0.576876 
0.61557 
0.648961 
0.669459 
0.670724 
0.648697 
0.602354 
0.534071 
0.449541 
0.357241 
0.267504 
0.191302 
0.138893 
0.118488 
0.135123 
0.189876 
0.279526 
0.396738 
0.530727 
0.66837 
0.795617 
0.899046 
0.967389 
0.992833 
0.971953 
0.906153 
0.80157 
0.668434 
0.519969 
0.370959 
0.236129 
0.128558 
0.0582742 
0.031221 
0.0486904 
0.107293 
0.19946 
0.314398 
0.439402 
0.56133 
0.668096 
0.74998 
0.800614 
0.81754 
0.802266 
0.759857 
0.698101 
0.626379 
0.554386 
0.490877 
0.442587 
0.413462 
0.4043 
0.412828 
0.434204 
0.461854 
0.488546 
0.507524 
0.513574 
0.503849 
0.47836 
0.440048 
0.394434 
0.348879 
0.311565 
0.290312 
0.291401 
0.318567 
0.372282 
0.449458 
0.543603 
0.645434 
0.743882 
0.827371 
0.885219 
0.90899 
0.893623 
0.838195 
0.746219 
0.625413 
0.48698 
0.344447 
0.212214 
0.103968 
0.0311512 
0.00166019 
0.0189371 
0.0815529 
0.183341 
0.314063 
0.460533 
0.608067 
0.742092 
0.849723 
0.921133 
0.950548 
0.936778 
0.883206 
0.797258 
0.689434 
0.572007 
0.457567 
0.357576 
0.281117 
0.23397 
0.218128 
0.231795 
0.269844 
0.324676 
0.387346 
0.448816 
0.501157 
0.538556 
0.557999 
0.55954 
0.546144 
0.52311 
0.497187 
0.475485 
0.464343 
0.468309 
0.489373 
0.526563 
0.57596 
0.631144 
0.684013 
0.725866 
0.748631 
0.746042 
0.714646 
0.654468 
0.569254 
0.466236 
0.355452 
0.248659 
0.158003 
0.09457 
0.0670219 
0.0804623 
0.135697 
0.228977 
0.352267 
0.494025 
0.640399 
0.776717 
0.889095 
0.96597 
0.999393 
0.985916 
0.926979 
0.828746 
0.701404 
0.558032 
0.413132 
0.281041 
0.174372 
0.102681 
0.0715122 
0.0819191 
0.130511 
0.210009 
0.310229 
0.419375 
0.525463 
0.617718 
0.687761 
0.730464 
0.744358 
0.731574 
0.697338 
0.649083 
0.595329 
0.544455 
0.503552 
0.477488 
0.468316 
0.475092 
0.494128 
0.519625 
0.544619 
0.562085 
0.566063 
0.552637 
0.520643 
0.471991 
0.411558 
0.346652 
0.286119 
0.239185 
0.214205 
0.217456 
0.252157 
0.31784 
0.410164 
0.521213 
0.640261 
0.754912 
0.852495 
0.921541 
0.953175 
0.942236 
0.888004 
0.794413 
0.669747 
0.525811 
0.376698 
0.237272 
0.121543 
0.0411358 
0.00401167 
0.0136064 
0.0684757 
0.162491 
0.285561 
0.424787 
0.565919 
0.694942 
0.799596 
0.870667 
0.902898 
0.895415 
0.851639 
0.778703 
0.686455 
0.586182 
0.489213 
0.405581 
0.342897 
0.30558 
0.294516 
0.307189 
0.338237 
0.380362 
0.425454 
0.465787 
0.495114 
0.509524 
0.507946 
0.492238 
0.46685 
0.438111 
0.413239 
0.399213 
0.401655 
0.423886 
0.466282 
0.52603 
0.597322 
0.671975 
0.740413 
0.792876 
0.820715 
0.817609 
0.780526 
0.710326 
0.611884 
0.493728 
0.367211 
0.245305 
0.141161 
0.0665901 
0.0306708 
0.0386237 
0.0911151 
0.184069 
0.309021 
0.453978 
0.604688 
0.74618 
0.864393 
0.947706 
0.988189 
0.982442 
0.931915 
0.842678 
0.724683 
0.590588 
0.454315 
0.32948 
0.227911 
0.158405 
0.125873 
0.130965 
0.1702 
0.236584 
0.320615 
0.411541 
0.498729 
0.572939 
0.62738 
0.658403 
0.665755 
0.652387 
0.623838 
0.587305 
0.550508 
0.520534 
0.50279 
0.500226 
0.512916 
0.538069 
0.570452 
0.603173 
0.628724 
0.640133 
0.632076 
0.60178 
0.549616 
0.479262 
0.397422 
0.313122 
0.236656 
0.178312 
0.147044 
0.149248 
0.187803 
0.261515 
0.365039 
0.489304 
0.622401 
0.750848 
0.861074 
0.94096 
0.981251 
0.976666 
0.926572 
0.835142 
0.710962 
0.566138 
0.414997 
0.272531 
0.152773 
0.0672755 
0.0238835 
0.0259313 
0.0719578 
0.155965 
0.268181 
0.39624 
0.526619 
0.646175 
0.743589 
0.810552 
0.842564 
0.839249 
0.804176 
0.744215 
0.668523 
0.587293 
0.510433 
0.446347 
0.400956 
0.377091 
0.374318 
0.389207 
0.415995 
0.447557 
0.476529 
0.496448 
0.502732 
0.493393 
0.469351 
0.434344 
0.394407 
0.35702 
0.330011 
0.320382 
0.333207 
0.370751 
0.431948 
0.512302 
0.604255 
0.697973 
0.78247 
0.84694 
0.882118 
0.881517 
0.842369 
0.76615 
0.65861 
0.529293 
0.390587 
0.256414 
0.140701 
0.0558263 
0.0111927 
0.0121355 
0.0592674 
0.148357 
0.270754 
0.414313 
0.564714 
0.707025 
0.827326 
0.914205 
0.959956 
0.961346 
0.919861 
0.84142 
0.735581 
0.614371 
0.490852 
0.377622 
0.285417 
0.221987 
0.19136 
0.193588 
0.224974 
0.278752 
0.346109 
0.417421 
0.483529 
0.536898 
0.572518 
0.588422 
0.585778 
0.568541 
0.542737 
0.515459 
0.493744 
0.483462 
0.488384 
0.509555 
0.545059 
0.590214 
0.638169 
0.68084 
0.71005 
0.71873 
0.702018 
0.658101 
0.588694 
0.499054 
0.397544 
0.294764 
0.202357 
0.13163 
0.0921538 
0.0905247 
0.129432 
0.207168 
0.31764 
0.450908 
0.594183 
0.733179 
0.853677 
0.9431 
0.991929 
0.994792 
0.951086 
0.865068 
0.745403 
0.604206 
0.45571 
0.314701 
0.194905 
0.107521 
0.0600535 
0.0555946 
0.0926115 
0.165272 
0.264247 
0.377896 
0.493673 
0.599589 
0.685561 
0.744468 
0.772814 
0.770926 
0.742666 
0.694722 
0.635572 
0.574273 
0.519216 
0.477041 
0.451813 
0.444597 
0.453452 
0.473854 
0.499473 
0.523209 
0.538316 
0.539488 
0.523735 
0.490938 
0.443991 
0.388517 
0.332182 
0.28369 
0.251586 
0.243041 
0.262748 
0.312113 
0.388835 
0.486948 
0.597343 
0.708707 
0.808778 
0.885777 
0.929835 
0.934238 
0.896347 
0.818055 
0.705732 
0.569641 
0.422894 
0.280058 
0.155572 
0.062153 
0.00939022 
0.00267388 
0.0425987 
0.124905 
0.240963 
0.378753 
0.524204 
0.66276 
0.780969 
0.867926 
0.916384 
0.923442 
0.890704 
0.823922 
0.732176 
0.626689 
0.519443 
0.421755 
0.342993 
0.289585 
0.264431 
0.266774 
0.292544 
0.335103 
0.386287 
0.437608 
0.481445 
0.512074 
0.526397 
0.524283 
0.508483 
0.484127 
0.457887 
0.43691 
0.42769 
0.435004 
0.461094 
0.505184 
0.563423 
0.629261 
0.694224 
0.748986 
0.784611 
0.793803 
0.771995 
0.718136 
0.635058 
0.52937 
0.410865 
0.291515 
0.184149 
0.100983 
0.0521696 
0.0445404 
0.0807102 
0.158643 
0.271753 
0.409526 
0.558608 
0.704234 
0.831824 
0.928585 
0.984906 
0.995408 
0.959509 
0.881451 
0.769787 
0.636386 
0.495081 
0.360118 
0.244592 
0.159043 
0.110389 
0.101293 
0.130051 
0.190976 
0.275249 
0.372089 
0.470122 
0.558753 
0.629389 
0.676356 
0.697407 
0.693781 
0.669801 
0.632089 
0.588517 
0.547015 
0.514434 
0.495576 
0.492554 
0.504541 
0.527948 
0.557007 
0.584667 
0.603693 
0.607806 
0.592716 
0.556891 
0.501965 
0.432717 
0.356596 
0.282873 
0.221496 
0.181797 
0.171225 
0.194257 
0.251639 
0.340068 
0.452359 
0.578101 
0.70473 
0.818903 
0.908008 
0.961638 
0.972842 
0.939017 
0.862299 
0.749437 
0.611121 
0.460864 
0.313549 
0.183815 
0.0844607 
0.0250634 
0.0109585 
0.0427041 
0.116087 
0.222664 
0.350774 
0.486887 
0.617144 
0.728888 
0.81202 
0.860016 
0.870503 
0.845326 
0.790117 
0.713439 
0.625607 
0.537357 
0.458514 
0.396846 
0.357218 
0.341166 
0.346919 
0.369858 
0.403339 
0.439757 
0.471719 
0.493138 
0.500131 
0.491581 
0.469286 
0.437693 
0.403239 
0.373386 
0.35549 
0.35566 
0.377742 
0.422602 
0.487789 
0.567638 
0.65383 
0.736319 
0.80455 
0.848788 
0.861414 
0.838005 
0.778071 
0.685327 
0.567465 
0.435442 
0.302345 
0.181967 
0.0872679 
0.02888 
0.0138574 
0.0448087 
0.119525 
0.231153 
0.368893 
0.519153 
0.667019 
0.797876 
0.898991 
0.960881 
0.978294 
0.950714 
0.88232 
0.781416 
0.659412 
0.529468 
0.404985 
0.298107 
0.218418 
0.171978 
0.160815 
0.182908 
0.232651 
0.301737 
0.380324 
0.458343 
0.526773 
0.578719 
0.610175 
0.620362 
0.611634 
0.588952 
0.559018 
0.529203 
0.506388 
0.49591 
0.500741 
0.521007 
0.553931 
0.59419 
0.634663 
0.667447 
0.685027 
0.681428 
0.653198 
0.600091 
0.525326 
0.435407 
0.339485 
0.248346 
0.173137 
0.123991 
0.108712 
0.131696 
0.193225 
0.289234 
0.41159 
0.548867 
0.687531 
0.813403 
0.913234 
0.976205 
0.995175 
0.967528 
0.895515 
0.786048 
0.649969 
0.500869 
0.353611 
0.222703 
0.120731 
0.0570251 
0.0367059 
0.0602237 
0.123433 
0.218189 
0.333375 
0.456254 
0.573951 
0.674908 
0.750132 
0.794087 
0.805149 
0.78556 
0.740925 
0.67931 
0.610077 
0.542611 
0.485102 
0.443533 
0.42101 
0.417507 
0.430044 
0.453276 
0.480398 
0.504244 
0.518414 
0.518293 
0.501809 
0.469815 
0.426067 
0.376763 
0.329729 
0.293329 
0.275269 
0.281432 
0.314918 
0.37541 
0.458971 
0.558312 
0.663501 
0.763047 
0.845239 
0.899557 
0.918005 
0.896188 
0.83399 
0.735769 
0.610025 
0.468577 
0.32533 
0.194772 
0.0903823 
0.0231194 
0.000186737 
0.0242062 
0.0929059 
0.199358 
0.332743 
0.47954 
0.625025 
0.754882 
0.856746 
0.921509 
0.944232 
0.92456 
0.866612 
0.778363 
0.670599 
0.555588 
0.445616 
0.351587 
0.281838 
0.241311 
0.231172 
0.248911 
0.288892 
0.343275 
0.403172 
0.45989 
0.506094 
0.53674 
0.549656 
0.545714 
0.528562 
0.503971 
0.478883 
0.460304 
0.454183 
0.46444 
0.492279 
0.53588 
0.590523 
0.649134 
0.70318 
0.743815 
0.763117 
0.755255 
0.717434 
0.650483 
0.558993 
0.450983 
0.337113 
0.229527 
0.140468 
0.0808263 
0.0587864 
0.0787647 
0.14075 
0.240148 
0.36816 
0.512653 
0.659433 
0.793779 
0.902051 
0.973201 
0.999994 
0.979813 
0.914935 
0.812265 
0.682548 
0.539157 
0.396598 
0.268915 
0.168169 
0.103177 
0.0786452 
0.0947974 
0.147525 
0.229031 
0.328882 
0.435327 
0.53672 
0.622872 
0.686169 
0.722324 
0.730688 
0.714083 
0.678212 
0.630713 
0.580012 
0.534105 
0.499463 
0.480171 
0.477436 
0.489509 
0.512039 
0.538792 
0.562645 
0.576717 
0.575472 
0.555647 
0.516878 
0.461921 
0.396441 
0.328379 
0.266974 
0.221562 
0.200306 
0.209018 
0.250236 
0.322676 
0.421151 
0.536979 
0.658835 
0.773972 
0.869658 
0.934662 
0.960613 
0.943063 
0.882115 
0.782545 
0.653383 
0.506996 
0.357786 
0.220625 
0.109243 
0.0347206 
0.00428293 
0.0205302 
0.0811865 
0.1794 
0.304554 
0.44349 
0.581994 
0.70638 
0.804966 
0.869299 
0.894963 
0.881904 
0.834241 
0.759593 
0.668022 
0.570731 
0.478675 
0.401273 
0.345358 
0.314501 
0.308783 
0.325019 
0.357401 
0.398463 
0.44023 
0.475391 
0.498346 
0.505979 
0.498068 
0.477261 
0.448647 
0.418957 
0.395528 
0.385159 
0.393015 
0.421741 
0.4709 
0.536833 
0.612959 
0.690492 
0.759496 
0.810138 
0.834 
0.825254 
0.781577 
0.704651 
0.600192 
0.477482 
0.348441 
0.226357 
0.124404 
0.0541188 
0.0240442 
0.0386701 
0.0978288 
0.196611 
0.325823 
0.47294 
0.623439 
0.762376 
0.876011 
0.953292 
0.987045 
0.974712 
0.918564 
0.825376 
0.705592 
0.572095 
0.438732 
0.318754 
0.223384 
0.160642 
0.134595 
0.145081 
0.187946 
0.255742 
0.338789 
0.42646 
0.508527 
0.576392 
0.624057 
0.648718 
0.65092 
0.634255 
0.604677 
0.569509 
0.536303 
0.511695 
0.500422 
0.504624 
0.523532 
0.553575 
0.58891 
0.622275 
0.646082 
0.653579 
0.639927 
0.603055 
0.544156 
0.46775 
0.381296 
0.294399 
0.217675 
0.161447 
0.134403 
0.142411 
0.187624 
0.268018 
0.37741 
0.505996 
0.641329 
0.769644 
0.877389 
0.952755 
0.987052 
0.975747 
0.919048 
0.821953 
0.693758 
0.547069 
0.396446 
0.256818 
0.141862 
0.0625302 
0.0258972 
0.0344524 
0.0859211 
0.173625 
0.28733 
0.414484 
0.541678 
0.656166 
0.747263 
0.807451 
0.833074 
0.824557 
0.786118 
0.72505 
0.650645 
0.572937 
0.501395 
0.443755 
0.405135 
0.387519 
0.389691 
0.407602 
0.435114 
0.46501 
0.490134 
0.504503 
0.504232 
0.488149 
0.458019 
0.418341 
0.375733 
0.338009 
0.31304 
0.307573 
0.32616 
0.370348 
0.438238 
0.5245 
0.620836 
0.716863 
0.801309 
0.863373 
0.89409 
0.887532 
0.841674 
0.758833 
0.645586 
0.512189 
0.371542 
0.237807 
0.124861 
0.0447309 
0.00622981 
0.0139254 
0.0675865 
0.162166 
0.288326 
0.433451 
0.583026 
0.722222 
0.837509 
0.9181 
0.957076 
0.952052 
0.905315 
0.823439 
0.716414 
0.596413 
0.476349 
0.368386 
0.282603 
0.225947 
0.201599 
0.208825 
0.243305 
0.297886 
0.363654 
0.431184 
0.491788 
0.538622 
0.567491 
0.577273 
0.569899 
0.549919 
0.523699 
0.498385 
0.480769 
0.476207 
0.487756 
0.515633 
0.557083 
0.606681 
0.657021 
0.69972 
0.726598 
0.730877 
0.708245 
0.657632 
0.581585 
0.486195 
0.380543 
0.275745 
0.183698 
0.115663 
0.0808757 
0.085345 
0.130998 
0.215284 
0.331291 
0.468389 
0.613307 
0.751557 
0.86901 
0.953472 
0.996044 
0.992135 
0.941989 
0.850669 
0.727501 
0.58504 
0.437675 
0.300051 
0.185473 
0.104484 
0.063793 
0.0656424 
0.107711 
0.183536 
0.283393 
0.39553 
0.50759 
0.608051 
0.687509 
0.739658 
0.761848 
0.755175 
0.724099 
0.675659 
0.618397 
0.561132 
0.511753 
0.476188 
0.457677 
0.456445 
0.469803 
0.492663 
0.51839 
0.539868 
0.550635 
0.545928 
0.52349 
0.484039 
0.4313 
0.371621 
0.313193 
0.26498 
0.235497 
0.231582 
0.257352 
0.313455 
0.396746 
0.50044 
0.61473 
0.727814 
0.827217 
0.901244 
0.940396 
0.938573 
0.893913 
0.809157 
0.691482 
0.55182 
0.403731 
0.261948 
0.140778 
0.0525255 
0.00613218 
0.00619258 
0.0524543 
0.139865 
0.259159 
0.397908 
0.541925 
0.676831 
0.789632 
0.870097 
0.911792 
0.912662 
0.875082 
0.805412 
0.713091 
0.609416 
0.50614 
0.414085 
0.341915 
0.295235 
0.276101 
0.283006 
0.311309 
0.354055 
0.403057 
0.450099 
0.488097 
0.512054 
0.519708 
0.511761 
0.491694 
0.46517 
0.43913 
0.420699 
0.416051 
0.429393 
0.462211 
0.51289 
0.576755 
0.646552 
0.713313 
0.767486 
0.80021 
0.80455 
0.776547 
0.715925 
0.62636 
0.515271 
0.393129 
0.272358 
0.165966 
0.086048 
0.0423483 
0.041061 
0.0840076 
0.168305 
0.286572 
0.427649 
0.57777 
0.722039 
0.846047 
0.937448 
0.987301 
0.991035 
0.948915 
0.86596 
0.751336 
0.617281 
0.477711 
0.346654 
0.236716 
0.157741 
0.115823 
0.112784 
0.146162 
0.209694 
0.294233 
0.388967 
0.482783 
0.565615 
0.629594 
0.669878 
0.685056 
0.677102 
0.650877 
0.613288 
0.572187 
0.535199 
0.508608 
0.496469 
0.500054 
0.517711 
0.545141 
0.576074 
0.603224 
0.619421 
0.618739 
0.597487 
0.554903 
0.493468 
0.418771 
0.338946 
0.263726 
0.203244 
0.166722 
0.161212 
0.190557 
0.254715 
0.349535 
0.467034 
0.596149 
0.723896 
0.83679 
0.922381 
0.970699 
0.97546 
0.934863 
0.851893 
0.73408 
0.592732 
0.441743 
0.296086 
0.170192 
0.0763809 
0.0235373 
0.0161768 
0.0540144 
0.132075 
0.241332 
0.369788 
0.50387 
0.629973 
0.735959 
0.812449 
0.85375 
0.858326 
0.828759 
0.771231 
0.694595 
0.609161 
0.525364 
0.452475 
0.397514 
0.36451 
0.354171 
0.364011 
0.388901 
0.421951 
0.455613 
0.482836 
0.498126 
0.498368 
0.483285 
0.455496 
0.420133 
0.384103 
0.355066 
0.340277 
0.345455 
0.373821 
0.425456 
0.49706 
0.582168 
0.671801 
0.755487 
0.822517 
0.863309 
0.870673 
0.840845 
0.774137 
0.67511 
0.552244 
0.417118 
0.283209 
0.164412 
0.0734874 
0.020597 
0.0121072 
0.0498102 
0.130653 
0.247017 
0.387509 
0.538194 
0.684105 
0.810871 
0.906271 
0.961535 
0.972241 
0.938711 
0.865867 
0.76257 
0.640528 
0.512907 
0.392818 
0.291855 
0.218861 
0.179062 
0.173654 
0.199897 
0.251667 
0.320402 
0.396305 
0.469643 
0.531978 
0.57718 
0.602083 
0.60673 
0.594165 
0.569829 
0.540634 
0.513854 
0.495993 
0.49177 
0.503372 
0.530081 
0.568312 
0.612082 
0.653829 
0.685492 
0.699694 
0.690883 
0.656261 
0.596377 
0.515301 
0.420324 
0.321229 
0.229198 
0.155492 
0.110055 
0.100227 
0.129722 
0.198009 
0.300178 
0.427326 
0.567428 
0.706596 
0.830589 
0.926393 
0.983692 
0.996054 
0.961689 
0.883688 
0.769712 
0.631164 
0.481948 
0.336939 
0.210363 
0.114266 
0.0572435 
0.0435804 
0.0728949 
0.140317 
0.237175 
0.35209 
0.472358 
0.585431 
0.68033 
0.748816 
0.786199 
0.791675 
0.768184 
0.72182 
0.660863 
0.594594 
0.532028 
0.480742 
0.445941 
0.429885 
0.43174 
0.447855 
0.472438 
0.498517 
0.519054 
0.528064 
0.521578 
0.498316 
0.459982 
0.411123 
0.358577 
0.310573 
0.275598 
0.26118 
0.272746 
0.312721 
0.379976 
0.46973 
0.573919 
0.682004 
0.782135 
0.862524 
0.912879 
0.925699 
0.897292 
0.828366 
0.724119 
0.593807 
0.449817 
0.306374 
0.17799 
0.0778709 
0.0164432 
0.000180297 
0.0308703 
0.105407 
0.216135 
0.351697 
0.498302 
0.64125 
0.766541 
0.862382 
0.920419 
0.93655 
0.911247 
0.849332 
0.759276 
0.652092 
0.539974 
0.434846 
0.347008 
0.284023 
0.249986 
0.245253 
0.266637 
0.308048 
0.361466 
0.418124 
0.469734 
0.5096 
0.533468 
0.540016 
0.530912 
0.510448 
0.484808 
0.461068 
0.446063 
0.445297 
0.462019 
0.496626 
0.546452 
0.605998 
0.667578 
0.722287 
0.761196 
0.7766 
0.763154 
0.718762 
0.645074 
0.547523 
0.434886 
0.318401 
0.210539 
0.123578 
0.0681454 
0.0518999 
0.0785334 
0.147202 
0.252478 
0.384826 
0.531572 
0.67824 
0.810123 
0.913889 
0.979052 
0.999128 
0.972338 
0.901785 
0.795084 
0.663484 
0.520593 
0.380855 
0.25796 
0.163373 
0.105138 
0.0871189 
0.108724 
0.165164 
0.248178 
0.347143 
0.450419 
0.546756 
0.626598 
0.68312 
0.71288 
0.71603 
0.696043 
0.659045 
0.612816 
0.565621 
0.52502 
0.496819 
0.484299 
0.487819 
0.50485 
0.53042 
0.557915 
0.58012 
0.590359 
0.583576 
0.5572 
0.511685 
0.450632 
0.380467 
0.309717 
0.247957 
0.204566 
0.187457 
0.201922 
0.249779 
0.328916 
0.433309 
0.553534 
0.677717 
0.792821 
0.886118 
0.946675 
0.966678 
0.942421 
0.874847 
0.769559 
0.636302 
0.487957 
0.339167 
0.204755 
0.0981049 
0.0297066 
0.00602029 
0.0288017 
0.0949581 
0.19695 
0.323689 
0.461818 
0.597224 
0.716607 
0.808913 
0.866472 
0.885715 
0.867392 
0.816279 
0.740426 
0.650046 
0.556193 
0.469393 
0.398407 
0.349266 
0.324695 
0.323989 
0.343335 
0.376538 
0.416029 
0.454029 
0.483698 
0.500122 
0.501003 
0.486961 
0.461413 
0.430038 
0.399913 
0.37843 
0.372145 
0.385711 
0.42106 
0.476927 
0.548816 
0.629399 
0.709334 
0.778384 
0.826712 
0.846187 
0.831532 
0.78116 
0.697592 
0.587373 
0.460505 
0.329428 
0.207687 
0.108408 
0.0427981 
0.0188135 
0.0401834 
0.105897 
0.210225 
0.343282 
0.49206 
0.641831 
0.777741 
0.886427 
0.957458 
0.98444 
0.965661 
0.9042 
0.807493 
0.686426 
0.554042 
0.424048 
0.309276 
0.220296 
0.16433 
0.144598 
0.160149 
0.206195 
0.27489 
0.356443 
0.440414 
0.517036 
0.578392 
0.619298 
0.637796 
0.635199 
0.615701 
0.585609 
0.552311 
0.523124 
0.504183 
0.499516 
0.510438 
0.535338 
0.569898 
0.607709 
0.6412 
0.662768 
0.665939 
0.646417 
0.602863 
0.537307 
0.455098 
0.364425 
0.275417 
0.198955 
0.145328 
0.122902 
0.136964 
0.188913 
0.275881 
0.390865 
0.523361 
0.660432 
0.788099 
0.892887 
0.96336 
0.991437 
0.973365 
0.910196 
0.807739 
0.675957 
0.527907 
0.378318 
0.241991 
0.132189 
0.0592201 
0.0293639 
0.0442626 
0.100848 
0.191803 
0.306487 
0.432225 
0.555785 
0.664876 
0.749487 
0.80291 
0.822337 
0.808966 
0.767622 
0.70596 
0.633349 
0.559596 
0.493677 
0.442625 
0.410734 
0.399147 
0.405895 
0.426356 
0.454074 
0.481805 
0.502665 
0.511204 
0.504265 
0.48151 
0.445538 
0.401577 
0.356783 
0.319242 
0.296801 
0.295892 
0.320498 
0.371412 
0.445896 
0.537794 
0.638104 
0.735947 
0.819823 
0.879002 
0.904881 
0.892136 
0.839516 
0.750181 
0.631523 
0.494473 
0.352387 
0.219608 
0.109892 
0.0348643 
0.00269846 
0.0171708 
0.0772028 
0.176951 
0.306431 
0.452614 
0.600851 
0.736481 
0.846418 
0.920547 
0.952755 
0.941502 
0.889855 
0.805002 
0.697305 
0.579021 
0.462847 
0.360463 
0.281249 
0.23133 
0.213047 
0.224908 
0.262011 
0.316877 
0.380557 
0.443884 
0.498699 
0.538879 
0.561063 
0.564963 
0.553246 
0.531004 
0.504887 
0.482028 
0.468911 
0.470331 
0.488596 
0.523084 
0.570214 
0.62385 
0.676082 
0.71829 
0.742356 
0.741854 
0.713067 
0.655697 
0.573135 
0.472286 
0.362914 
0.2566 
0.16543 
0.100555 
0.070817 
0.0815928 
0.134022 
0.224705 
0.345932 
0.48642 
0.632474 
0.769463 
0.883418 
0.96258 
0.998714 
0.988033 
0.931628 
0.835344 
0.709128 
0.565915 
0.420189 
0.286391 
0.177345 
0.102906 
0.0689604 
0.07691 
0.123671 
0.202192 
0.302414 
0.412538 
0.520459 
0.615171 
0.687992 
0.733442 
0.749711 
0.738634 
0.705221 
0.656805 
0.601924 
0.549099 
0.505663 
0.476803 
0.464921 
0.469412 
0.486871 
0.511699 
0.537015 
0.555754 
0.561795 
0.550967 
0.521779 
0.475791 
0.417547 
0.354081 
0.294059 
0.246645 
0.220251 
0.221333 
0.25338 
0.316256 
0.405971 
0.514935 
0.632683 
0.746982 
0.845203 
0.915799 
0.949701 
0.941465 
0.890031 
0.798986 
0.676293 
0.533512 
0.384592 
0.244372 
0.126961 
0.0441948 
0.00432939 
0.0111431 
0.0635392 
0.155699 
0.277762 
0.416955 
0.559035 
0.689865 
0.796961 
0.870804 
0.90579 
0.9007 
0.858656 
0.786575 
0.694198 
0.592828 
0.493932 
0.407783 
0.342306 
0.302269 
0.288901 
0.299971 
0.330318 
0.372732 
0.419067 
0.461441 
0.493353 
0.510567 
0.511664 
0.498166 
0.474246 
0.446051 
0.42073 
0.405319 
0.405612 
0.425201 
0.46479 
0.521917 
0.591101 
0.664426 
0.732478 
0.785548 
0.81491 
0.814051 
0.779662 
0.712263 
0.616379 
0.50022 
0.374889 
0.253209 
0.148302 
0.0720759 
0.0338157 
0.0390345 
0.0887405 
0.179206 
0.302278 
0.446197 
0.596841 
0.739249 
0.859245 
0.944984 
0.988233 
0.985247 
0.937129 
0.849651 
0.732542 
0.598352 
0.461012 
0.334273 
0.230202 
0.157907 
0.122648 
0.125416 
0.163021 
0.228673 
0.31296 
0.4051 
0.494306 
0.571087 
0.628332 
0.662038 
0.67162 
0.659748 
0.631776 
0.594826 
0.556673 
0.524572 
0.504197 
0.498824 
0.508882 
0.531907 
0.562932 
0.595235 
0.62136 
0.634265 
0.628435 
0.600823 
0.551462 
0.48368 
0.403861 
0.320776 
0.244568 
0.185493 
0.152597 
0.152478 
0.188307 
0.25923 
0.36025 
0.48261 
0.614639 
0.742988 
0.854098 
0.935741 
0.978441 
0.976616 
0.929289 
0.840286 
0.71789 
0.573984 
0.422779 
0.279278 
0.15764 
0.0696552 
0.023478 
0.0227913 
0.0664759 
0.148826 
0.260278 
0.38856 
0.520123 
0.641674 
0.741647 
0.811411 
0.846117 
0.845051 
0.811502 
0.75215 
0.676074 
0.593516 
0.514551 
0.447845 
0.399646 
0.373138 
0.368215 
0.381717 
0.408055 
0.440159 
0.470598 
0.492725 
0.501683 
0.495148 
0.473692 
0.440727 
0.402035 
0.364939 
0.337231 
0.326001 
0.336522 
0.371348 
0.429752 
0.507588 
0.597611 
0.69023 
0.774597 
0.839921 
0.876829 
0.87862 
0.842226 
0.768779 
0.663683 
0.536175 
0.398418 
0.264214 
0.147497 
0.0607669 
0.0136612 
0.0118231 
0.0562132 
0.142943 
0.263657 
0.40642 
0.557011 
0.700476 
0.82275 
0.912173 
0.960722 
0.964814 
0.925599 
0.848709 
0.743511 
0.621951 
0.497133 
0.38182 
0.287007 
0.22077 
0.187488 
0.187545 
0.217516 
0.270811 
0.338678 
0.411429 
0.479724 
0.535756 
0.574182 
0.592685 
0.592105 
0.576143 
0.550662 
0.522718 
0.499429 
0.486862 
0.489074 
0.507449 
0.54042 
0.583622 
0.630448 
0.672956 
0.702988 
0.713373 
0.699034 
0.657866 
0.591235 
0.504054 
0.404379 
0.302579 
0.210175 
0.138473 
0.097167 
0.0930815 
0.129213 
0.2042 
0.312294 
0.443853 
0.5863 
0.725455 
0.847076 
0.938448 
0.989807 
0.995465 
0.95447 
0.870741 
0.752655 
0.612131 
0.463317 
0.321038 
0.199181 
0.109201 
0.0589283 
0.0518042 
0.0866297 
0.157846 
0.256306 
0.370433 
0.487619 
0.595703 
0.684328 
0.746041 
0.776998 
0.777197 
0.75024 
0.702653 
0.642868 
0.580022 
0.5227 
0.477823 
0.449797 
0.440034 
0.446913 
0.466155 
0.491578 
0.516104 
0.53289 
0.536418 
0.523407 
0.493391 
0.448919 
0.395304 
0.33998 
0.291523 
0.258476 
0.248126 
0.265393 
0.311987 
0.385953 
0.481672 
0.590332 
0.700836 
0.801032 
0.879125 
0.925107 
0.932027 
0.896928 
0.821356 
0.711339 
0.576854 
0.430812 
0.287691 
0.161965 
0.0665076 
0.0111618 
0.00164091 
0.0388904 
0.118984 
0.233571 
0.370813 
0.516709 
0.656646 
0.777002 
0.8666 
0.917866 
0.927547 
0.896918 
0.831468 
0.740111 
0.634022 
0.525256 
0.425322 
0.343868 
0.287659 
0.259944 
0.260287 
0.284869 
0.327199 
0.379141 
0.432114 
0.478291 
0.511653 
0.528761 
0.529138 
0.515221 
0.491907 
0.465735 
0.443846 
0.432846 
0.437737 
0.461061 
0.502389 
0.558216 
0.622294 
0.686367 
0.74122 
0.777908 
0.789 
0.769693 
0.718623 
0.638273 
0.534911 
0.41804 
0.299426 
0.191807 
0.107432 
0.0566018 
0.0464027 
0.0797697 
0.155018 
0.265895 
0.402168 
0.550671 
0.696709 
0.825652 
0.924537 
0.983489 
0.996799 
0.963533 
0.887606 
0.777303 
0.644324 
0.502448 
0.365994 
0.248242 
0.160011 
0.108553 
0.0968837 
0.123619 
0.183326 
0.267336 
0.364903 
0.464562 
0.555513 
0.628875 
0.678631 
0.702187 
0.700469 
0.677561 
0.639951 
0.595497 
0.552242 
0.517254 
0.495636 
0.489847 
0.499405 
0.521026 
0.549163 
0.576882 
0.59694 
0.60293 
0.590326 
0.557285 
0.505095 
0.438191 
0.36373 
0.290775 
0.229178 
0.1883 
0.175735 
0.19621 
0.250791 
0.336526 
0.446565 
0.570779 
0.696796 
0.811348 
0.901778 
0.95751 
0.971334 
0.940315 
0.866243 
0.755532 
0.618606 
0.468804 
0.320951 
0.189753 
0.0881931 
0.0261234 
0.00921355 
0.0383723 
0.10971 
0.215039 
0.342853 
0.479662 
0.611517 
0.725563 
0.811412 
0.862202 
0.875209 
0.851964 
0.797857 
0.721313 
0.632632 
0.542654 
0.461421 
0.396999 
0.354599 
0.336101 
0.340043 
0.36203 
0.395536 
0.432957 
0.46677 
0.490659 
0.500433 
0.494625 
0.474692 
0.444786 
0.411131 
0.381091 
0.362045 
0.360245 
0.379785 
0.421847 
0.48433 
0.561908 
0.646544 
0.72839 
0.796968 
0.842501 
0.857207 
0.836405 
0.779278 
0.689189 
0.573501 
0.442896 
0.310286 
0.189402 
0.0932677 
0.0326944 
0.0150096 
0.0431547 
0.115272 
0.224832 
0.361295 
0.511227 
0.659756 
0.792184 
0.895582 
0.96018 
0.98039 
0.955345 
0.888906 
0.789135 
0.667297 
0.536535 
0.410351 
0.301101 
0.218664 
0.169447 
0.155823 
0.176079 
0.224838 
0.293917 
0.373475 
0.453321 
0.524206 
0.578928 
0.613133 
0.6257 
0.618684 
0.596833 
0.566746 
0.53581 
0.511049 
0.498043 
0.500079 
0.517633 
0.548265 
0.586942 
0.626739 
0.659838 
0.678683 
0.677142 
0.651507 
0.601205 
0.529107 
0.441382 
0.346907 
0.256286 
0.180604 
0.130051 
0.112608 
0.13294 
0.191662 
0.285059 
0.405326 
0.541296 
0.679599 
0.806102 
0.907477 
0.972711 
0.994382 
0.969534 
0.90007 
0.792582 
0.657664 
0.508765 
0.360721 
0.228137 
0.12381 
0.0573647 
0.0342633 
0.0553043 
0.116652 
0.210393 
0.32554 
0.449359 
0.568857 
0.672253 
0.750247 
0.796958 
0.810417 
0.792567 
0.748795 
0.687058 
0.616735 
0.547347 
0.487324 
0.442963 
0.41772 
0.411908 
0.422835 
0.445359 
0.472763 
0.497844 
0.51405 
0.516511 
0.502831 
0.473514 
0.431979 
0.384151 
0.337668 
0.300827 
0.281389 
0.285409 
0.316255 
0.373939 
0.454877 
0.552106 
0.655958 
0.755112 
0.837903 
0.893736 
0.914428 
0.895302 
0.835906 
0.740246 
0.616505 
0.476249 
0.333235 
0.201923 
0.0958839 
0.0262843 
0.000619384 
0.0218524 
0.08806 
0.192626 
0.324966 
0.47169 
0.618084 
0.749717 
0.854003 
0.921531 
0.947016 
0.929758 
0.873574 
0.786219 
0.678367 
0.562297 
0.450426 
0.353898 
0.281362 
0.238106 
0.225639 
0.241741 
0.280983 
0.335614 
0.396718 
0.455449 
0.504222 
0.537669 
0.553272 
0.551564 
0.535915 
0.511908 
0.486411 
0.466483 
0.45824 
0.465868 
0.490899 
0.531865 
0.584375 
0.641621 
0.695242 
0.736443 
0.757233 
0.751595 
0.716456 
0.652308 
0.563393 
0.457409 
0.344761 
0.23744 
0.147659 
0.0863946 
0.0620366 
0.0792903 
0.138485 
0.235376 
0.361477 
0.504895 
0.65157 
0.786793 
0.896816 
0.970371 
0.999923 
0.98251 
0.920062 
0.819182 
0.69039 
0.546944 
0.403356 
0.2738 
0.17057 
0.102793 
0.0755253 
0.0893313 
0.140396 
0.22113 
0.321197 
0.428819 
0.532202 
0.620909 
0.687006 
0.725857 
0.736475 
0.721401 
0.686145 
0.638271 
0.586249 
0.538242 
0.500982 
0.478883 
0.473501 
0.48342 
0.504557 
0.530851 
0.555239 
0.570772 
0.57173 
0.554576 
0.518612 
0.466244 
0.402812 
0.336001 
0.274895 
0.228791 
0.20594 
0.212353 
0.250854 
0.3205 
0.416455 
0.530348 
0.651098 
0.766096 
0.862628 
0.929357 
0.957696 
0.942898 
0.884723 
0.787601 
0.660253 
0.514823 
0.36559 
0.227432 
0.114201 
0.0372098 
0.00399242 
0.0174963 
0.0757884 
0.172313 
0.296663 
0.435782 
0.575433 
0.701785 
0.802913 
0.870043 
0.898412 
0.887627 
0.841522 
0.767522 
0.675608 
0.577025 
0.482891 
0.402884 
0.344162 
0.310648 
0.302755 
0.317568 
0.34946 
0.391024 
0.434224 
0.471567 
0.497183 
0.507622 
0.502312 
0.483576 
0.456243 
0.426884 
0.402796 
0.390859 
0.396435 
0.422452 
0.468814 
0.532211 
0.606379 
0.682776 
0.751608 
0.803066 
0.828626 
0.822251 
0.78132 
0.707172 
0.605176 
0.484305 
0.356251 
0.234179 
0.131258 
0.059149 
0.0266217 
0.0384727 
0.0948811 
0.191281 
0.318778 
0.46506 
0.615709 
0.755763 
0.871341 
0.951149 
0.987697 
0.978077 
0.924222 
0.832619 
0.713515 
0.579708 
0.445082 
0.323049 
0.225086 
0.159539 
0.130824 
0.139114 
0.180528 
0.247801 
0.331318 
0.420393 
0.504622 
0.575137 
0.625609 
0.652883 
0.657177 
0.641823 
0.612609 
0.576814 
0.542067 
0.515198 
0.501226 
0.502629 
0.518986 
0.547048 
0.581217 
0.614378 
0.638968 
0.648137 
0.636837 
0.602705 
0.546589 
0.47266 
0.388072 
0.302192 
0.225512 
0.168347 
0.139505 
0.145076 
0.18752 
0.265157 
0.37215 
0.498995 
0.633461 
0.761894 
0.870725 
0.94801 
0.984819 
0.976305 
0.922328 
0.827545 
0.700962 
0.554985 
0.404084 
0.263224 
0.146235 
0.064323 
0.0248859 
0.0307634 
0.0800155 
0.166241 
0.279391 
0.406982 
0.53555 
0.65218 
0.745916 
0.808911 
0.83716 
0.830757 
0.793657 
0.732986 
0.657986 
0.578765 
0.504981 
0.444652 
0.40323 
0.38305 
0.383217 
0.399933 
0.427208 
0.457854 
0.484624 
0.501329 
0.503789 
0.490492 
0.462857 
0.425067 
0.383508 
0.345861 
0.319986 
0.312746 
0.328913 
0.370337 
0.435465 
0.51931 
0.613879 
0.709009 
0.793539 
0.856658 
0.88927 
0.885209 
0.84214 
0.762028 
0.651111 
0.519354 
0.37945 
0.245471 
0.131321 
0.0491812 
0.00811332 
0.0130066 
0.0639802 
0.156323 
0.280976 
0.425514 
0.575494 
0.716036 
0.833442 
0.916661 
0.958445 
0.956057 
0.911456 
0.830948 
0.724352 
0.603789 
0.48224 
0.372056 
0.283593 
0.224132 
0.197207 
0.202406 
0.23566 
0.289971 
0.356459 
0.425607 
0.488528 
0.538085 
0.569745 
0.582036 
0.576576 
0.557675 
0.531563 
0.505376 
0.486012 
0.479047 
0.487838 
0.512946 
0.551964 
0.599769 
0.64918 
0.691931 
0.719834 
0.725984 
0.705834 
0.658004 
0.584695 
0.491653 
0.387667 
0.283645 
0.191386 
0.122178 
0.085403 
0.0873188 
0.130172 
0.211761 
0.325512 
0.461075 
0.605374 
0.743995 
0.862767 
0.949326 
0.994514 
0.993412 
0.945914 
0.856751 
0.73498 
0.59298 
0.445085 
0.306004 
0.189224 
0.105566 
0.0620694 
0.0613289 
0.101347 
0.175917 
0.275471 
0.388296 
0.501948 
0.604706 
0.68688 
0.741823 
0.766536 
0.761801 
0.731833 
0.683536 
0.625432 
0.566445 
0.51468 
0.476363 
0.455079 
0.451398 
0.462938 
0.484838 
0.510584 
0.533056 
0.545669 
0.543428 
0.52377 
0.487063 
0.43669 
0.378703 
0.321082 
0.272691 
0.242064 
0.236185 
0.259416 
0.312721 
0.393307 
0.494725 
0.607454 
0.719886 
0.819628 
0.894943 
0.93617 
0.936951 
0.895098 
0.813001 
0.697503 
0.559267 
0.411672 
0.269391 
0.146792 
0.0563591 
0.00730606 
0.00456001 
0.0482193 
0.133557 
0.251566 
0.389981 
0.534653 
0.671124 
0.786203 
0.869375 
0.913867 
0.917274 
0.881656 
0.813125 
0.72098 
0.616493 
0.511522 
0.417099 
0.342184 
0.292724 
0.271126 
0.276188 
0.303501 
0.346232 
0.396197 
0.445061 
0.485509 
0.512241 
0.522645 
0.517083 
0.498734 
0.473048 
0.446862 
0.427319 
0.42073 
0.431546 
0.46157 
0.509535 
0.571105 
0.639313 
0.70539 
0.75987 
0.793852 
0.800246 
0.774835 
0.717017 
0.630121 
0.521232 
0.400543 
0.280299 
0.173441 
0.0921224 
0.0462632 
0.042327 
0.0824663 
0.16415 
0.280321 
0.420084 
0.569838 
0.71473 
0.840276 
0.933935 
0.986486 
0.99302 
0.953451 
0.872481 
0.759026 
0.62518 
0.48483 
0.352104 
0.239816 
0.158103 
0.113401 
0.107882 
0.139392 
0.201903 
0.286395 
0.382061 
0.477673 
0.562939 
0.629688 
0.672729 
0.690308 
0.684098 
0.658743 
0.62104 
0.578857 
0.539953 
0.510851 
0.495921 
0.496784 
0.512126 
0.537941 
0.568158 
0.595582 
0.613008 
0.614357 
0.595684 
0.555904 
0.497147 
0.42467 
0.346326 
0.271665 
0.21075 
0.172856 
0.165207 
0.191915 
0.253265 
0.345459 
0.460841 
0.588614 
0.715959 
0.829445 
0.916546 
0.967103 
0.974552 
0.936757 
0.856353 
0.740547 
0.600399 
0.44965 
0.303246 
0.175709 
0.0795659 
0.0239918 
0.013844 
0.0491859 
0.125355 
0.233559 
0.361935 
0.496918 
0.624792 
0.733196 
0.81245 
0.856514 
0.863507 
0.83571 
0.779084 
0.702367 
0.615881 
0.530192 
0.454807 
0.397059 
0.361325 
0.348653 
0.356851 
0.380993 
0.414285 
0.449146 
0.478376 
0.496232 
0.499276 
0.486882 
0.461331 
0.427478 
0.392039 
0.362601 
0.34647 
0.349531 
0.375271 
0.424098 
0.493064 
0.576034 
0.664296 
0.747548 
0.815137 
0.857411 
0.866994 
0.839845 
0.775941 
0.679493 
0.558656 
0.42476 
0.291125 
0.171611 
0.0790714 
0.0238671 
0.0126547 
0.0475666 
0.125899 
0.240346 
0.379756 
0.530328 
0.677109 
0.805619 
0.903421 
0.961442 
0.974917 
0.943821 
0.872773 
0.770408 
0.648319 
0.519677 
0.39772 
0.294276 
0.218499 
0.175962 
0.168204 
0.192778 
0.243768 
0.312711 
0.389784 
0.465106 
0.529994 
0.577995 
0.605596 
0.612501 
0.601474 
0.577762 
0.548198 
0.520105 
0.500149 
0.493311 
0.502106 
0.526166 
0.562238 
0.604608 
0.645889 
0.678078 
0.693734 
0.687122 
0.655168 
0.59809 
0.519605 
0.426681 
0.328845 
0.237121 
0.162731 
0.115705 
0.103581 
0.130362 
0.195855 
0.295499 
0.420706 
0.559696 
0.698718 
0.82355 
0.921072 
0.980755 
0.995868 
0.964278 
0.888727 
0.776571 
0.638987 
0.489757 
0.343756 
0.215338 
0.116776 
0.0569749 
0.0405667 
0.0675129 
0.13324 
0.229286 
0.344377 
0.465785 
0.580819 
0.678255 
0.749539 
0.789629 
0.797382 
0.775457 
0.729748 
0.668455 
0.600902 
0.536263 
0.482374 
0.444766 
0.426051 
0.425725 
0.440412 
0.464497 
0.491071 
0.513033 
0.524221 
0.520393 
0.499938 
0.464208 
0.417424 
0.366166 
0.318501 
0.282874 
0.266894 
0.276185 
0.313454 
0.377912 
0.465127 
0.567351 
0.674294 
0.774245 
0.855442 
0.907489 
0.922675 
0.897013 
0.830866 
0.729086 
0.600619 
0.457624 
0.314199 
0.184855 
0.082918 
0.0190414 
4.78783e-06 
0.027943 
0.100094 
0.2091 
0.343819 
0.490567 
0.634625 
0.761853 
0.860218 
0.921048 
0.939895 
0.916889 
0.856566 
0.767198 
0.659711 
0.546338 
0.439159 
0.348732 
0.282941 
0.246234 
0.2393 
0.259227 
0.300108 
0.353988 
0.412043 
0.46581 
0.508323 
0.534999 
0.544163 
0.537156 
0.518009 
0.492741 
0.468381 
0.451842 
0.44882 
0.462845 
0.494652 
0.541924 
0.599484 
0.65989 
0.714387 
0.754072 
0.771142 
0.760044 
0.71839 
0.647485 
0.552416 
0.44165 
0.32619 
0.218379 
0.13049 
0.0732641 
0.054586 
0.078451 
0.144362 
0.247234 
0.377835 
0.523707 
0.670485 
0.803447 
0.909126 
0.976798 
0.999665 
0.975598 
0.907361 
0.802279 
0.671399 
0.528237 
0.387274 
0.262351 
0.165187 
0.104149 
0.0834493 
0.102834 
0.157788 
0.240239 
0.339633 
0.444278 
0.542751 
0.62523 
0.684559 
0.716947 
0.722216 
0.703575 
0.666982 
0.620165 
0.571464 
0.528626 
0.497738 
0.482415 
0.483369 
0.498389 
0.522756 
0.550006 
0.572955 
0.584834 
0.580381 
0.556734 
0.514007 
0.455452 
0.387182 
0.317488 
0.255811 
0.211523 
0.192647 
0.204696 
0.24979 
0.326163 
0.428135 
0.546587 
0.669866 
0.785046 
0.879392 
0.941838 
0.964335 
0.942865 
0.878022 
0.775069 
0.643458 
0.495863 
0.346836 
0.211228 
0.102573 
0.0316114 
0.00512325 
0.025215 
0.08913 
0.189609 
0.315753 
0.454279 
0.591024 
0.712521 
0.807452 
0.867819 
0.889701 
0.873519 
0.823781 
0.748365 
0.65743 
0.562098 
0.473081 
0.399418 
0.347473 
0.320322 
0.317582 
0.335696 
0.368621 
0.408825 
0.448438 
0.480418 
0.499564 
0.503236 
0.491707 
0.468077 
0.437788 
0.40778 
0.385431 
0.377404 
0.388572 
0.421164 
0.474262 
0.543713 
0.622498 
0.701497 
0.770591 
0.819937 
0.841277 
0.8291 
0.781511 
0.700681 
0.592815 
0.467619 
0.337326 
0.21538 
0.114935 
0.0473433 
0.0208086 
0.039379 
0.102393 
0.204461 
0.335977 
0.484128 
0.634263 
0.771484 
0.882262 
0.955907 
0.985696 
0.969567 
0.910267 
0.814964 
0.694367 
0.56146 
0.430015 
0.313047 
0.221399 
0.162628 
0.140303 
0.153798 
0.198582 
0.266967 
0.3492 
0.434757 
0.513672 
0.577741 
0.621442 
0.642466 
0.641812 
0.62343 
0.593489 
0.559355 
0.528453 
0.50713 
0.499713 
0.50786 
0.530308 
0.563044 
0.599888 
0.63339 
0.655945 
0.660956 
0.643896 
0.603121 
0.54031 
0.460472 
0.371498 
0.283304 
0.20667 
0.151908 
0.127523 
0.139049 
0.188202 
0.272462 
0.385165 
0.516093 
0.652505 
0.780503 
0.886573 
0.959116 
0.989794 
0.974528 
0.914021 
0.813746 
0.683396 
0.535848 
0.385769 
0.248019 
0.136041 
0.0604156 
0.0277528 
0.0400462 
0.0945539 
0.184217 
0.298558 
0.424944 
0.550062 
0.661427 
0.748743 
0.804964 
0.826932 
0.815527 
0.77533 
0.713851 
0.640436 
0.564994 
0.49671 
0.442916 
0.408245 
0.394189 
0.399088 
0.418552 
0.446247 
0.474934 
0.49761 
0.508596 
0.50443 
0.484427 
0.450843 
0.408607 
0.364659 
0.326979 
0.303432 
0.300589 
0.322673 
0.370794 
0.442561 
0.532159 
0.630874 
0.728026 
0.812201 
0.872632 
0.900559 
0.890402 
0.840587 
0.753924 
0.637469 
0.501879 
0.360327 
0.22709 
0.115981 
0.0387982 
0.003986 
0.015651 
0.0730657 
0.170713 
0.298874 
0.444681 
0.593533 
0.730694 
0.842886 
0.91971 
0.954718 
0.94602 
0.896364 
0.812687 
0.705206 
0.58615 
0.468313 
0.363582 
0.281632 
0.22893 
0.208162 
0.218149 
0.254224 
0.309035 
0.37364 
0.438757 
0.496003 
0.538951 
0.563893 
0.570198 
0.560232 
0.538868 
0.512644 
0.48871 
0.473682 
0.472595 
0.48807 
0.519834 
0.564646 
0.61666 
0.668168 
0.710643 
0.735931 
0.737453 
0.711243 
0.656675 
0.576795 
0.47817 
0.370285 
0.264538 
0.172943 
0.106703 
0.0748316 
0.0829722 
0.132593 
0.220648 
0.339753 
0.478891 
0.624537 
0.76211 
0.877568 
0.958965 
0.997784 
0.989906 
0.936069 
0.841798 
0.716789 
0.573824 
0.427359 
0.291924 
0.18055 
0.103382 
0.0666485 
0.0720989 
0.116962 
0.194424 
0.294558 
0.405576 
0.515261 
0.612388 
0.68797 
0.736185 
0.754876 
0.745575 
0.713071 
0.664582 
0.608656 
0.553944 
0.508017 
0.47637 
0.461756 
0.46391 
0.479721 
0.503794 
0.529343 
0.549274 
0.557318 
0.549052 
0.522666 
0.479368 
0.423367 
0.361418 
0.301995 
0.254188 
0.226458 
0.225427 
0.254851 
0.31492 
0.401994 
0.508815 
0.625185 
0.739042 
0.837815 
0.909887 
0.946002 
0.940443 
0.891813 
0.80335 
0.682693 
0.541148 
0.39251 
0.251581 
0.132561 
0.0474849 
0.00489871 
0.00892047 
0.0588025 
0.14904 
0.270013 
0.409086 
0.552028 
0.684597 
0.79409 
0.870689 
0.908445 
0.905794 
0.865552 
0.79441 
0.701994 
0.599609 
0.498851 
0.410225 
0.341966 
0.29919 
0.283466 
0.292861 
0.322422 
0.365036 
0.412534 
0.456887 
0.491347 
0.511361 
0.515157 
0.503923 
0.481547 
0.453982 
0.428301 
0.411583 
0.409787 
0.426763 
0.463545 
0.518021 
0.585041 
0.656958 
0.724538 
0.778126 
0.808935 
0.810271 
0.778548 
0.713954 
0.620665 
0.506565 
0.382499 
0.261133 
0.155549 
0.077741 
0.0371903 
0.0396967 
0.0866075 
0.174545 
0.29567 
0.438469 
0.58896 
0.7322 
0.853908 
0.942026 
0.988025 
0.987814 
0.942151 
0.8565 
0.740361 
0.606164 
0.467841 
0.339265 
0.232733 
0.15766 
0.119655 
0.12005 
0.155953 
0.220787 
0.305241 
0.398514 
0.489676 
0.568991 
0.629032 
0.665448 
0.677312 
0.667011 
0.639702 
0.602425 
0.562994 
0.528826 
0.50585 
0.497672 
0.505067 
0.525907 
0.555497 
0.587294 
0.613906 
0.628229 
0.624573 
0.599617 
0.553063 
0.487888 
0.410149 
0.328359 
0.252497 
0.192778 
0.158327 
0.155937 
0.189062 
0.257186 
0.355664 
0.476055 
0.606934 
0.735096 
0.847006 
0.930335 
0.975398 
0.976315 
0.931768 
0.845235 
0.724691 
0.581786 
0.430608 
0.286154 
0.162704 
0.0722741 
0.0233244 
0.0198844 
0.061179 
0.141801 
0.252404 
0.380821 
0.513485 
0.636969 
0.739461 
0.812019 
0.849442 
0.850678 
0.818727 
0.76007 
0.683699 
0.599893 
0.518883 
0.44959 
0.398586 
0.369405 
0.362277 
0.374315 
0.400115 
0.432673 
0.464503 
0.488782 
0.500385 
0.496657 
0.47782 
0.446958 
0.40959 
0.372873 
0.344553 
0.331795 
0.340064 
0.372196 
0.427799 
0.503078 
0.591109 
0.682548 
0.766695 
0.832787 
0.871356 
0.875491 
0.841832 
0.77117 
0.668559 
0.542928 
0.406203 
0.272058 
0.154419 
0.0659024 
0.0163678 
0.0117626 
0.0533932 
0.137716 
0.256676 
0.398558 
0.549251 
0.693788 
0.817969 
0.909898 
0.961237 
0.968055 
0.93116 
0.855895 
0.751424 
0.629601 
0.503565 
0.386229 
0.288842 
0.219802 
0.183838 
0.181669 
0.210148 
0.262873 
0.331162 
0.405274 
0.4757 
0.534366 
0.5756 
0.596733 
0.598278 
0.583668 
0.5586 
0.530075 
0.505286 
0.490487 
0.490014 
0.505586 
0.535988 
0.577174 
0.62279 
0.665045 
0.695814 
0.707832 
0.695819 
0.657378 
0.593536 
0.508857 
0.411082 
0.310345 
0.218032 
0.14544 
0.102373 
0.0958756 
0.129246 
0.201467 
0.307138 
0.436918 
0.578452 
0.717675 
0.840338 
0.933593 
0.987443 
0.995887 
0.957626 
0.876235 
0.759801 
0.620035 
0.470992 
0.327525 
0.203668 
0.111127 
0.058053 
0.048237 
0.0808165 
0.150514 
0.248371 
0.362887 
0.481406 
0.591599 
0.682846 
0.747367 
0.780965 
0.78331 
0.757735 
0.710592 
0.65026 
0.585942 
0.526408 
0.478856 
0.448025 
0.435679 
0.440519 
0.458522 
0.48366 
0.508891 
0.527282 
0.533118 
0.522826 
0.495603 
0.453647 
0.401957 
0.347726 
0.299393 
0.265488 
0.253402 
0.268274 
0.312113 
0.383308 
0.476586 
0.583442 
0.693003 
0.793235 
0.872338 
0.92018 
0.929574 
0.897257 
0.824425 
0.716766 
0.583959 
0.438707 
0.295389 
0.168505 
0.0710707 
0.013178 
0.000858276 
0.0354067 
0.113235 
0.226275 
0.362882 
0.509134 
0.650376 
0.772819 
0.865027 
0.9191 
0.931433 
0.902971 
0.838932 
0.748052 
0.641447 
0.531238 
0.429112 
0.344993 
0.285978 
0.255667 
0.25395 
0.277263 
0.319274 
0.371889 
0.426442 
0.474906 
0.510979 
0.530883 
0.53379 
0.521822 
0.499631 
0.473617 
0.450901 
0.438192 
0.440704 
0.46128 
0.499832 
0.553203 
0.61545 
0.678549 
0.733406 
0.771073 
0.784 
0.767152 
0.718859 
0.641257 
0.540269 
0.425102 
0.30731 
0.199528 
0.114023 
0.0612408 
0.0485089 
0.0790798 
0.151618 
0.260211 
0.394909 
0.542745 
0.689107 
0.819324 
0.920275 
0.981825 
0.99794 
0.967338 
0.893599 
0.784734 
0.652265 
0.509906 
0.372037 
0.252113 
0.161228 
0.106963 
0.0926859 
0.117337 
0.175746 
0.259406 
0.357614 
0.458824 
0.552045 
0.628109 
0.680663 
0.706764 
0.707018 
0.685263 
0.647844 
0.602594 
0.557656 
0.520308 
0.495948 
0.487379 
0.494465 
0.51423 
0.541363 
0.569052 
0.590059 
0.597858 
0.587697 
0.557428 
0.507992 
0.443479 
0.370749 
0.298648 
0.23692 
0.194943 
0.180449 
0.198406 
0.250194 
0.33321 
0.440945 
0.563558 
0.688876 
0.80372 
0.895394 
0.953169 
0.969578 
0.941365 
0.869966 
0.761464 
0.626004 
0.476744 
0.328441 
0.195856 
0.092146 
0.0274325 
0.00771524 
0.0342538 
0.103486 
0.207488 
0.334919 
0.472336 
0.605716 
0.722011 
0.810553 
0.864144 
0.87971 
0.85846 
0.805536 
0.729216 
0.63977 
0.548135 
0.464561 
0.397405 
0.352219 
0.331234 
0.333296 
0.354247 
0.387691 
0.426029 
0.461626 
0.487942 
0.500482 
0.497435 
0.479911 
0.451761 
0.418992 
0.388853 
0.368739 
0.365034 
0.38207 
0.421343 
0.481099 
0.556355 
0.639363 
0.720478 
0.789314 
0.836062 
0.852788 
0.834559 
0.780235 
0.69283 
0.579369 
0.45026 
0.318223 
0.196922 
0.0994294 
0.0367279 
0.0164105 
0.041748 
0.111233 
0.218667 
0.353773 
0.503289 
0.652395 
0.786319 
0.891947 
0.959229 
0.982242 
0.959768 
0.895348 
0.79679 
0.675209 
0.543714 
0.415899 
0.304326 
0.219162 
0.167156 
0.151029 
0.169381 
0.217075 
0.286058 
0.366502 
0.448107 
0.521402 
0.578884 
0.615855 
0.630848 
0.625615 
0.604679 
0.574527 
0.542554 
0.515912 
0.500417 
0.499668 
0.514488 
0.542779 
0.579801 
0.618836 
0.65216 
0.672191 
0.672646 
0.64957 
0.602069 
0.532664 
0.447188 
0.354235 
0.264221 
0.188153 
0.136271 
0.116721 
0.134433 
0.190347 
0.281101 
0.399219 
0.533804 
0.671659 
0.798706 
0.90155 
0.968994 
0.993338 
0.971295 
0.904415 
0.798969 
0.665294 
0.516684 
0.367939 
0.233752 
0.12712 
0.0579558 
0.0320618 
0.0505853 
0.110006 
0.20265 
0.317668 
0.442342 
0.563573 
0.669362 
0.75011 
0.799593 
0.815494 
0.799451 
0.756626 
0.694858 
0.623528 
0.552284 
0.489787 
0.442645 
0.414661 
0.406489 
0.415735 
0.437465 
0.465061 
0.491298 
0.509478 
0.514484 
0.503603 
0.476987 
0.437721 
0.391443 
0.345599 
0.308405 
0.287667 
0.289602 
0.317838 
0.372716 
0.451 
0.546059 
0.648498 
0.747171 
0.830473 
0.887747 
0.910629 
0.894166 
0.837576 
0.744514 
0.622836 
0.483853 
0.341161 
0.209179 
0.101564 
0.0296787 
0.0013034 
0.0197405 
0.0834162 
0.186031 
0.317243 
0.463806 
0.611024 
0.744364 
0.851025 
0.921302 
0.949563 
0.934763 
0.880412 
0.794034 
0.686184 
0.569137 
0.455435 
0.35645 
0.281137 
0.235133 
0.220289 
0.234684 
0.273099 
0.327891 
0.39012 
0.450801 
0.502105 
0.538348 
0.556661 
0.557241 
0.54317 
0.519833 
0.494016 
0.472817 
0.462512 
0.467543 
0.489768 
0.52807 
0.57839 
0.634194 
0.687301 
0.728982 
0.751184 
0.747714 
0.715228 
0.653887 
0.567582 
0.463683 
0.352337 
0.245371 
0.154953 
0.0921398 
0.065515 
0.0800671 
0.136463 
0.230808 
0.354935 
0.497195 
0.643676 
0.779691 
0.891394 
0.967307 
0.9996 
0.984968 
0.924995 
0.825972 
0.698189 
0.554776 
0.410243 
0.278881 
0.173209 
0.102662 
0.0726388 
0.0840508 
0.133381 
0.213259 
0.313453 
0.422169 
0.527479 
0.618702 
0.687592 
0.729163 
0.742086 
0.728617 
0.694064 
0.645902 
0.592639 
0.542592 
0.502749 
0.477845 
0.469788 
0.477496 
0.497163 
0.522912 
0.547746 
0.564662 
0.567767 
0.553256 
0.5201 
0.470353 
0.409029 
0.343549 
0.28283 
0.236121 
0.211749 
0.215915 
0.251724 
0.318569 
0.411963 
0.523858 
0.643421 
0.758193 
0.855485 
0.923867 
0.954547 
0.942482 
0.887093 
0.79246 
0.666994 
0.522604 
0.373437 
0.234365 
0.119353 
0.039937 
0.00395384 
0.0146967 
0.0705778 
0.165342 
0.288805 
0.428018 
0.568733 
0.696987 
0.800617 
0.870537 
0.901632 
0.893172 
0.848699 
0.775433 
0.683265 
0.58347 
0.487319 
0.404741 
0.343216 
0.307018 
0.296893 
0.310209 
0.341522 
0.383501 
0.428055 
0.467525 
0.495771 
0.509018 
0.506341 
0.489734 
0.463761 
0.434822 
0.410161 
0.396731 
0.40008 
0.423414 
0.466973 
0.527797 
0.599943 
0.675124 
0.743696 
0.795882 
0.823069 
0.819016 
0.78081 
0.709452 
0.609961 
0.490996 
0.364012 
0.24204 
0.138236 
0.0643717 
0.0294362 
0.0385273 
0.0921689 
0.186142 
0.311853 
0.457215 
0.607925 
0.749014 
0.866469 
0.948764 
0.988097 
0.981212 
0.9297 
0.839755 
0.721417 
0.587389 
0.451581 
0.327554 
0.227033 
0.158685 
0.127277 
0.133316 
0.173204 
0.239867 
0.323765 
0.414166 
0.500499 
0.573634 
0.626913 
0.656832 
0.663276 
0.64931 
0.620549 
0.584213 
0.548001 
0.518925 
0.50228 
0.500879 
0.51465 
0.540668 
0.57359 
0.606458 
0.631745 
0.642514 
0.633517 
0.602103 
0.54878 
0.477371 
0.394713 
0.309933 
0.233385 
0.175369 
0.144798 
0.147978 
0.187668 
0.262532 
0.367082 
0.492116 
0.625631 
0.754092 
0.863927 
0.943065 
0.982345 
0.976612 
0.925377 
0.832955 
0.708057 
0.562878 
0.411788 
0.269776 
0.150816 
0.0663605 
0.0241251 
0.0272994 
0.0742814 
0.158953 
0.271461 
0.399401 
0.529266 
0.647977 
0.744321 
0.810123 
0.841027 
0.836796 
0.801114 
0.740926 
0.665419 
0.584761 
0.508791 
0.445799 
0.401571 
0.378792 
0.376893 
0.392333 
0.419282 
0.450593 
0.478936 
0.497924 
0.503094 
0.492594 
0.467491 
0.431656 
0.391227 
0.353746 
0.327051 
0.318107 
0.331901 
0.370578 
0.432928 
0.514314 
0.607047 
0.701195 
0.785721 
0.849812 
0.884253 
0.882648 
0.842354 
0.764991 
0.656453 
0.526407 
0.387332 
0.253197 
0.137926 
0.053838 
0.0102406 
0.0123386 
0.0606003 
0.150653 
0.273726 
0.41759 
0.567886 
0.709696 
0.829161 
0.914975 
0.959565 
0.959843 
0.917434 
0.838371 
0.732293 
0.611255 
0.488296 
0.375946 
0.284832 
0.222564 
0.193028 
0.196138 
0.228087 
0.28204 
0.349161 
0.419855 
0.485039 
0.537297 
0.571756 
0.586595 
0.583113 
0.565372 
0.539459 
0.512483 
0.491442 
0.482121 
0.488172 
0.510499 
0.547041 
0.592985 
0.641384 
0.684097 
0.712941 
0.720895 
0.703184 
0.658125 
0.587571 
0.496926 
0.394676 
0.291515 
0.199133 
0.128833 
0.0901349 
0.0895358 
0.129597 
0.208465 
0.319908 
0.453864 
0.597456 
0.736361 
0.85637 
0.944967 
0.992737 
0.99444 
0.949617 
0.862667 
0.74237 
0.60092 
0.452581 
0.312121 
0.193196 
0.106897 
0.0605926 
0.0572292 
0.0951373 
0.168373 
0.267536 
0.380962 
0.496132 
0.601134 
0.685999 
0.743744 
0.771019 
0.768284 
0.739507 
0.691441 
0.63258 
0.571943 
0.51784 
0.47679 
0.45272 
0.446548 
0.456202 
0.47706 
0.502735 
0.526118 
0.540509 
0.54069 
0.523798 
0.489852 
0.441892 
0.385668 
0.328939 
0.280458 
0.24877 
0.240992 
0.261722 
0.312239 
0.390097 
0.489188 
0.600282 
0.711976 
0.811969 
0.888492 
0.931734 
0.935084 
0.896033 
0.816622 
0.703357 
0.566622 
0.419609 
0.276918 
0.152968 
0.0604114 
0.00872853 
0.00317484 
0.0441997 
0.127406 
0.244052 
0.382042 
0.527283 
0.665244 
0.782548 
0.868402 
0.915698 
0.921679 
0.888085 
0.820774 
0.728893 
0.623681 
0.517086 
0.420344 
0.342704 
0.290454 
0.26635 
0.269503 
0.295742 
0.33837 
0.389214 
0.43983 
0.482684 
0.512175 
0.525347 
0.522214 
0.505654 
0.480891 
0.454648 
0.434074 
0.425611 
0.433942 
0.461181 
0.50641 
0.565634 
0.632182 
0.697489 
0.752186 
0.787347 
0.795732 
0.772877 
0.71786 
0.633659 
0.527022 
0.407863 
0.288233 
0.180997 
0.0983561 
0.0503953 
0.043841 
0.081173 
0.160211 
0.274229 
0.4126 
0.561898 
0.707327 
0.834334 
0.930198 
0.98542 
0.99476 
0.957779 
0.878855 
0.76665 
0.6331 
0.492057 
0.357734 
0.243146 
0.158716 
0.111221 
0.103181 
0.132758 
0.194165 
0.27852 
0.375034 
0.472372 
0.560028 
0.629529 
0.675343 
0.695368 
0.690971 
0.666571 
0.628844 
0.585661 
0.544906 
0.513335 
0.495625 
0.493745 
0.506724 
0.530851 
0.560267 
0.587876 
0.60645 
0.609767 
0.593636 
0.556654 
0.500601 
0.430396 
0.353609 
0.279594 
0.218334 
0.179147 
0.169419 
0.19352 
0.252064 
0.341601 
0.454809 
0.581161 
0.708018 
0.822008 
0.910542 
0.963284 
0.973395 
0.938406 
0.860602 
0.746865 
0.607996 
0.457577 
0.310511 
0.181405 
0.0829801 
0.0246976 
0.0117532 
0.0445598 
0.118772 
0.225842 
0.354048 
0.489848 
0.619422 
0.730198 
0.812198 
0.85904 
0.868495 
0.842537 
0.786896 
0.710188 
0.622733 
0.535218 
0.457379 
0.396856 
0.358372 
0.34332 
0.349803 
0.373113 
0.406556 
0.442536 
0.473711 
0.494094 
0.499933 
0.490252 
0.466993 
0.434723 
0.399963 
0.370213 
0.352817 
0.353821 
0.376967 
0.422989 
0.489288 
0.570062 
0.656876 
0.739607 
0.807668 
0.851347 
0.863093 
0.838596 
0.777499 
0.683663 
0.564917 
0.43233 
0.299056 
0.178914 
0.0848317 
0.0273652 
0.0134533 
0.0455658 
0.121349 
0.233816 
0.372062 
0.522431 
0.669997 
0.800182 
0.900337 
0.961097 
0.977355 
0.948737 
0.879551 
0.778203 
0.656155 
0.526574 
0.402817 
0.296936 
0.218389 
0.173096 
0.16294 
0.185774 
0.2359 
0.304962 
0.383123 
0.460366 
0.527766 
0.578559 
0.608881 
0.618097 
0.608681 
0.585679 
0.555835 
0.526508 
0.504517 
0.495098 
0.501089 
0.522472 
0.556329 
0.597222 
0.637949 
0.670578 
0.68761 
0.68314 
0.653827 
0.599556 
0.523695 
0.432884 
0.336386 
0.245057 
0.170069 
0.121529 
0.107163 
0.131254 
0.193945 
0.291025 
0.414229 
0.552025 
0.690812 
0.816397 
0.915567 
0.977585 
0.99543 
0.966626 
0.893569 
0.783301 
0.646763 
0.497607 
0.3507 
0.220506 
0.119524 
0.0569582 
0.0377876 
0.0623188 
0.12628 
0.221431 
0.336608 
0.459073 
0.576004 
0.675938 
0.75001 
0.792829 
0.802912 
0.782624 
0.737657 
0.676117 
0.607359 
0.540709 
0.484252 
0.443842 
0.42244 
0.419879 
0.433061 
0.45656 
0.48354 
0.50685 
0.520159 
0.51896 
0.501312 
0.468218 
0.423569 
0.373677 
0.32644 
0.290248 
0.272781 
0.279849 
0.314438 
0.376092 
0.460731 
0.560929 
0.666647 
0.766331 
0.848249 
0.901917 
0.91942 
0.896482 
0.833125 
0.733853 
0.607298 
0.465381 
0.322063 
0.191843 
0.0881572 
0.0218764 
8.12644e-05 
0.0252514 
0.0949711 
0.202186 
0.335978 
0.482779 
0.627864 
0.756965 
0.857812 
0.921427 
0.94301 
0.922351 
0.863693 
0.775098 
0.667398 
0.552849 
0.443682 
0.3507 
0.282109 
0.242706 
0.233517 
0.251912 
0.292174 
0.346428 
0.405802 
0.461668 
0.506798 
0.536281 
0.548092 
0.543241 
0.525489 
0.500681 
0.475789 
0.457792 
0.452566 
0.463921 
0.492923 
0.537606 
0.593116 
0.652269 
0.706466 
0.74684 
0.765504 
0.756705 
0.717766 
0.649655 
0.557109 
0.448279 
0.333926 
0.226255 
0.137522 
0.0785729 
0.0575078 
0.0786207 
0.141758 
0.242183 
0.370967 
0.515881 
0.66268 
0.796637 
0.904164 
0.974304 
0.99995 
0.978627 
0.912755 
0.809364 
0.679289 
0.535947 
0.393838 
0.26695 
0.167245 
0.10341 
0.080005 
0.0971145 
0.15051 
0.23231 
0.332046 
0.43798 
0.53853 
0.623614 
0.685749 
0.720795 
0.728241 
0.711024 
0.674923 
0.627606 
0.577474 
0.532455 
0.498906 
0.480777 
0.479129 
0.492078 
0.515162 
0.542079 
0.565685 
0.579131 
0.576957 
0.556017 
0.516088 
0.460069 
0.393759 
0.325202 
0.263699 
0.218598 
0.198024 
0.207704 
0.250053 
0.323647 
0.423156 
0.539766 
0.662056 
0.777224 
0.872535 
0.936804 
0.961753 
0.943057 
0.880965 
0.780394 
0.6505 
0.503743 
0.354567 
0.217845 
0.107248 
0.0337598 
0.004477 
0.0218548 
0.0834761 
0.182368 
0.30783 
0.446664 
0.58467 
0.708222 
0.805745 
0.868917 
0.893468 
0.879483 
0.831197 
0.756306 
0.664903 
0.568169 
0.476991 
0.400678 
0.345926 
0.316161 
0.311328 
0.32813 
0.360689 
0.401518 
0.44267 
0.47691 
0.498754 
0.505226 
0.496248 
0.474602 
0.44548 
0.415678 
0.392548 
0.38285 
0.391666 
0.42152 
0.471835 
0.538807 
0.615725 
0.693705 
0.762753 
0.813033 
0.836171 
0.826429 
0.78161 
0.703537 
0.598071 
0.474618 
0.345193 
0.223131 
0.121602 
0.0520928 
0.0230466 
0.0388256 
0.099118 
0.198873 
0.328775 
0.476212 
0.626623 
0.765074 
0.877885 
0.954108 
0.986702 
0.973251 
0.916169 
0.822346 
0.702306 
0.568964 
0.436146 
0.317038 
0.222751 
0.161173 
0.136222 
0.147601 
0.191044 
0.259031 
0.341858 
0.428925 
0.51008 
0.576839 
0.623342 
0.64693 
0.648283 
0.631099 
0.601396 
0.566513 
0.533966 
0.51031 
0.500162 
0.505522 
0.525475 
0.55632 
0.592114 
0.625538 
0.648996 
0.655779 
0.641138 
0.603127 
0.543079 
0.465658 
0.378452 
0.291157 
0.214442 
0.158625 
0.132347 
0.141377 
0.187741 
0.269271 
0.379644 
0.508931 
0.644597 
0.772838 
0.880109 
0.954661 
0.987906 
0.975442 
0.917622 
0.819585 
0.690743 
0.543784 
0.393302 
0.254208 
0.140112 
0.0618596 
0.0263892 
0.0360454 
0.0884161 
0.17671 
0.290619 
0.417567 
0.544168 
0.657753 
0.747748 
0.806773 
0.831319 
0.821943 
0.782973 
0.721766 
0.647634 
0.570574 
0.499975 
0.443457 
0.405996 
0.389431 
0.392415 
0.410798 
0.438382 
0.467941 
0.492362 
0.505751 
0.504342 
0.487108 
0.455958 
0.415516 
0.372498 
0.334769 
0.310199 
0.305486 
0.325089 
0.370426 
0.439456 
0.526705 
0.623752 
0.720127 
0.804512 
0.866114 
0.896027 
0.888423 
0.841408 
0.757442 
0.643244 
0.50919 
0.36826 
0.234653 
0.122228 
0.042949 
0.00552151 
0.0143792 
0.0691456 
0.164635 
0.291397 
0.43674 
0.586122 
0.724738 
0.839129 
0.918623 
0.956437 
0.950329 
0.902725 
0.820305 
0.713128 
0.593386 
0.473959 
0.366932 
0.282267 
0.22677 
0.203479 
0.211527 
0.246491 
0.301157 
0.366603 
0.43344 
0.493071 
0.53877 
0.566486 
0.575241 
0.567095 
0.546692 
0.520452 
0.495525 
0.478653 
0.4751 
0.487796 
0.516815 
0.559259 
0.609579 
0.660279 
0.702931 
0.72936 
0.732845 
0.709173 
0.657403 
0.580229 
0.483881 
0.37756 
0.272466 
0.180533 
0.113008 
0.0790616 
0.084599 
0.131414 
0.216809 
0.333735 
0.471446 
0.616596 
0.754665 
0.871551 
0.955126 
0.996605 
0.991533 
0.940299 
0.848103 
0.72438 
0.581752 
0.434633 
0.297635 
0.183984 
0.10411 
0.0645789 
0.0674907 
0.110391 
0.186712 
0.286669 
0.398496 
0.509875 
0.609369 
0.687696 
0.738691 
0.759847 
0.75239 
0.720879 
0.672406 
0.615518 
0.558987 
0.51061 
0.476189 
0.458823 
0.458593 
0.472683 
0.495916 
0.52161 
0.542652 
0.552635 
0.546893 
0.523301 
0.482718 
0.429013 
0.368654 
0.309917 
0.261805 
0.232818 
0.229736 
0.256569 
0.313832 
0.398237 
0.502858 
0.617773 
0.731102 
0.830339 
0.903809 
0.942083 
0.939172 
0.893349 
0.807501 
0.68894 
0.548711 
0.400442 
0.258892 
0.138336 
0.0510026 
0.00571905 
0.00694089 
0.0542705 
0.142522 
0.262324 
0.401187 
0.544906 
0.679143 
0.790986 
0.870323 
0.910862 
0.910692 
0.872319 
0.8022 
0.709833 
0.606518 
0.503966 
0.412906 
0.341878 
0.296344 
0.278219 
0.285867 
0.314556 
0.357282 
0.40586 
0.452129 
0.489099 
0.511903 
0.518423 
0.509503 
0.488744 
0.461898 
0.435945 
0.417999 
0.414173 
0.428572 
0.46255 
0.514346 
0.579146 
0.64958 
0.716599 
0.770619 
0.802798 
0.80627 
0.777185 
0.715399 
0.624737 
0.512754 
0.390033 
0.269069 
0.162896 
0.0835799 
0.0407913 
0.0406096 
0.0847183 
0.170089 
0.289206 
0.430804 
0.581052 
0.725037 
0.848387 
0.938836 
0.987565 
0.990142 
0.946976 
0.863218 
0.748133 
0.614018 
0.474795 
0.344451 
0.235501 
0.157665 
0.116896 
0.114873 
0.149004 
0.212935 
0.297468 
0.39179 
0.484843 
0.566654 
0.629482 
0.668628 
0.682826 
0.674169 
0.647609 
0.610093 
0.569465 
0.533289 
0.50775 
0.496769 
0.501476 
0.520076 
0.548154 
0.579358 
0.606369 
0.622033 
0.620493 
0.598162 
0.554416 
0.491879 
0.416279 
0.335863 
0.260436 
0.20016 
0.164229 
0.159621 
0.190067 
0.255388 
0.351287 
0.469645 
0.599293 
0.72718 
0.839804 
0.924747 
0.972123 
0.975762 
0.934007 
0.849985 
0.731359 
0.589538 
0.438475 
0.293152 
0.16796 
0.0751296 
0.0234227 
0.0172134 
0.0560726 
0.134898 
0.244566 
0.373029 
0.506713 
0.632063 
0.737035 
0.812376 
0.852537 
0.856124 
0.825844 
0.767968 
0.691391 
0.606417 
0.523423 
0.451579 
0.397776 
0.365897 
0.356509 
0.367008 
0.392182 
0.425107 
0.458249 
0.484621 
0.498839 
0.497918 
0.48173 
0.453029 
0.417063 
0.380814 
0.351968 
0.337759 
0.34383 
0.373293 
0.426091 
0.498778 
0.584755 
0.674934 
0.758773 
0.825546 
0.865702 
0.872131 
0.841186 
0.773318 
0.673234 
0.549544 
0.413934 
0.279937 
0.161461 
0.0712274 
0.01931 
0.0119541 
0.0508101 
0.132681 
0.249819 
0.390736 
0.541442 
0.686968 
0.81299 
0.907383 
0.9615 
0.971064 
0.936538 
0.86297 
0.759312 
0.637316 
0.510142 
0.390846 
0.290922 
0.219084 
0.180413 
0.175965 
0.202878 
0.254945 
0.323568 
0.398963 
0.471461 
0.532729 
0.576769 
0.600562 
0.604289 
0.591109 
0.566541 
0.537524 
0.511311 
0.494335 
0.491204 
0.503969 
0.531767 
0.570876 
0.615203 
0.657117 
0.688535 
0.702113 
0.692376 
0.65664 
0.595596 
0.513456 
0.417647 
0.318054 
0.225923 
0.152525 
0.107767 
0.0989041 
0.12953 
0.198972 
0.302175 
0.430108 
0.570647 
0.70985 
0.833471 
0.928542 
0.98484 
0.996058 
0.960548 
0.881544 
0.766834 
0.627912 
0.478728 
0.334153 
0.20836 
0.113297 
0.0574285 
0.0448967 
0.075178 
0.143282 
0.24045 
0.355266 
0.475039 
0.587281 
0.681117 
0.748444 
0.784713 
0.78926 
0.765143 
0.718533 
0.65774 
0.592027 
0.530337 
0.480138 
0.4465 
0.431537 
0.434278 
0.450963 
0.475727 
0.501575 
0.521499 
0.529591 
0.521995 
0.497572 
0.45817 
0.408468 
0.355412 
0.307294 
0.272614 
0.258864 
0.271388 
0.312491 
0.380902 
0.471697 
0.57668 
0.685215 
0.785393 
0.865424 
0.915057 
0.926883 
0.897334 
0.827261 
0.722005 
0.590948 
0.446571 
0.303146 
0.175184 
0.0758377 
0.015437 
0.000326767 
0.0321511 
0.107663 
0.219082 
0.354968 
0.501488 
0.643953 
0.768423 
0.863208 
0.920084 
0.935098 
0.908858 
0.846306 
0.755991 
0.648958 
0.537382 
0.433122 
0.346367 
0.284544 
0.251605 
0.247767 
0.269732 
0.311337 
0.364538 
0.420595 
0.471295 
0.510056 
0.532762 
0.538236 
0.52828 
0.507294 
0.481526 
0.458068 
0.443721 
0.443904 
0.461751 
0.497515 
0.548387 
0.608739 
0.67078 
0.72555 
0.764114 
0.778806 
0.764374 
0.718843 
0.644005 
0.545438 
0.432046 
0.315161 
0.207304 
0.120753 
0.066082 
0.050857 
0.0786413 
0.148448 
0.254705 
0.387756 
0.534839 
0.681436 
0.812848 
0.915802 
0.979915 
0.998832 
0.97092 
0.899423 
0.792073 
0.660201 
0.517447 
0.37824 
0.256203 
0.162693 
0.105621 
0.088704 
0.111213 
0.168246 
0.251467 
0.350228 
0.452915 
0.548351 
0.627092 
0.682451 
0.711133 
0.713422 
0.692901 
0.655761 
0.609801 
0.563252 
0.523593 
0.496512 
0.485151 
0.489723 
0.507569 
0.533613 
0.561183 
0.583055 
0.592594 
0.584831 
0.557319 
0.510653 
0.448577 
0.377647 
0.306484 
0.244715 
0.201721 
0.185364 
0.200843 
0.249849 
0.330126 
0.435507 
0.556446 
0.680979 
0.796026 
0.888864 
0.94862 
0.967578 
0.942164 
0.873464 
0.767224 
0.633307 
0.484676 
0.33601 
0.202117 
0.0963155 
0.0289895 
0.00646511 
0.0303529 
0.0974217 
0.200018 
0.326978 
0.464916 
0.599745 
0.718235 
0.809445 
0.865841 
0.884 
0.864807 
0.813148 
0.73714 
0.647016 
0.553796 
0.46793 
0.398061 
0.35008 
0.326568 
0.326685 
0.346519 
0.37981 
0.418982 
0.456293 
0.48499 
0.50028 
0.500007 
0.484937 
0.458613 
0.426812 
0.396665 
0.375566 
0.370022 
0.384595 
0.421091 
0.478101 
0.550985 
0.632293 
0.712591 
0.781597 
0.829479 
0.848163 
0.832469 
0.780941 
0.696244 
0.585066 
0.457526 
0.32615 
0.204519 
0.105747 
0.0409764 
0.0180588 
0.0405899 
0.107414 
0.212663 
0.346336 
0.495348 
0.644942 
0.780287 
0.888089 
0.958028 
0.983848 
0.96398 
0.901639 
0.804374 
0.683138 
0.550997 
0.421626 
0.307779 
0.219912 
0.165107 
0.146439 
0.162823 
0.209368 
0.278167 
0.359413 
0.442705 
0.518363 
0.578589 
0.61834 
0.635802 
0.632419 
0.612483 
0.582355 
0.549427 
0.520972 
0.503031 
0.499508 
0.511575 
0.537478 
0.572774 
0.610961 
0.644421 
0.665556 
0.667945 
0.64739 
0.602683 
0.535994 
0.452818 
0.361462 
0.272142 
0.195777 
0.142645 
0.121048 
0.136172 
0.189282 
0.277364 
0.393277 
0.526401 
0.663719 
0.791223 
0.895458 
0.965055 
0.992045 
0.97281 
0.908548 
0.805203 
0.67285 
0.524618 
0.375258 
0.239542 
0.130658 
0.0587979 
0.0301034 
0.0460712 
0.1035 
0.194966 
0.309767 
0.435211 
0.558103 
0.666237 
0.749721 
0.801989 
0.820374 
0.806207 
0.764412 
0.7027 
0.630447 
0.557415 
0.492488 
0.442579 
0.411835 
0.401258 
0.408752 
0.429602 
0.457303 
0.484613 
0.504702 
0.512215 
0.504123 
0.480233 
0.443286 
0.398631 
0.353512 
0.316054 
0.294095 
0.294007 
0.319668 
0.371742 
0.447344 
0.54018 
0.641128 
0.739233 
0.822959 
0.881596 
0.906609 
0.892782 
0.838999 
0.748567 
0.629012 
0.49138 
0.349098 
0.216534 
0.107418 
0.0332992 
0.00223809 
0.0178726 
0.0789791 
0.179579 
0.309584 
0.455896 
0.603853 
0.738827 
0.847815 
0.92082 
0.95187 
0.93957 
0.887118 
0.801801 
0.694041 
0.576101 
0.460637 
0.359239 
0.281164 
0.232395 
0.215128 
0.227745 
0.265251 
0.320113 
0.383385 
0.445951 
0.499746 
0.538776 
0.559822 
0.562739 
0.550318 
0.527738 
0.50169 
0.4793 
0.466994 
0.469464 
0.488887 
0.524497 
0.572573 
0.626859 
0.679365 
0.721438 
0.744974 
0.743614 
0.713751 
0.655218 
0.571554 
0.4698 
0.359833 
0.253311 
0.162343 
0.0980561 
0.0692182 
0.0810943 
0.134686 
0.226449 
0.348538 
0.489561 
0.635758 
0.77248 
0.885791 
0.964012 
0.999025 
0.987185 
0.929727 
0.832628 
0.705936 
0.562646 
0.417252 
0.284153 
0.176085 
0.102782 
0.0699884 
0.0789611 
0.126489 
0.205424 
0.305656 
0.415385 
0.522555 
0.616255 
0.687927 
0.732237 
0.747516 
0.735724 
0.701959 
0.6536 
0.599175 
0.54715 
0.504759 
0.477056 
0.466299 
0.471743 
0.489865 
0.51498 
0.540173 
0.558395 
0.563589 
0.551689 
0.521339 
0.474244 
0.415086 
0.351015 
0.29077 
0.243545 
0.217727 
0.2197 
0.252843 
0.316882 
0.407682 
0.517517 
0.635813 
0.750268 
0.848235 
0.918199 
0.951167 
0.941815 
0.889221 
0.797117 
0.673599 
0.53033 
0.381319 
0.241417 
0.124695 
0.0428995 
0.00416724 
0.0121343 
0.06556 
0.158496 
0.280986 
0.420204 
0.561901 
0.691991 
0.798081 
0.870778 
0.904621 
0.898534 
0.855764 
0.783318 
0.690984 
0.590059 
0.491953 
0.406841 
0.34252 
0.303613 
0.291205 
0.302948 
0.333596 
0.375901 
0.421731 
0.463267 
0.494112 
0.510165 
0.510151 
0.495731 
0.471194 
0.442763 
0.417617 
0.40277 
0.403947 
0.424626 
0.465378 
0.523595 
0.593659 
0.667543 
0.735766 
0.788595 
0.817335 
0.815552 
0.78005 
0.71149 
0.614542 
0.497549 
0.371716 
0.249932 
0.14533 
0.0697815 
0.032485 
0.0388338 
0.0896949 
0.181196 
0.305055 
0.449414 
0.600096 
0.742135 
0.861401 
0.94614 
0.988245 
0.984114 
0.934993 
0.846778 
0.729291 
0.59513 
0.458222 
0.332264 
0.229224 
0.158083 
0.123956 
0.127692 
0.165982 
0.231947 
0.316138 
0.407786 
0.496163 
0.571884 
0.627968 
0.66056 
0.669211 
0.65671 
0.628489 
0.591701 
0.5541 
0.522873 
0.503584 
0.499375 
0.510527 
0.53444 
0.566037 
0.598524 
0.624422 
0.636716 
0.62997 
0.60125 
0.550727 
0.481876 
0.401212 
0.317614 
0.241288 
0.182505 
0.150275 
0.151112 
0.188067 
0.260147 
0.36221 
0.485366 
0.617848 
0.746248 
0.857002 
0.937926 
0.979634 
0.976667 
0.928192 
0.838178 
0.715035 
0.570739 
0.419549 
0.276467 
0.1556 
0.0686404 
0.0236154 
0.0240638 
0.0687244 
0.151769 
0.263548 
0.391749 
0.522831 
0.643564 
0.742481 
0.811086 
0.844673 
0.842669 
0.808479 
0.748864 
0.672937 
0.590919 
0.512819 
0.447194 
0.400159 
0.374749 
0.370724 
0.384809 
0.411344 
0.443234 
0.473075 
0.494294 
0.502148 
0.494451 
0.471919 
0.438101 
0.398884 
0.361657 
0.334228 
0.323652 
0.335121 
0.37107 
0.430632 
0.509516 
0.600347 
0.69343 
0.777862 
0.842842 
0.879043 
0.879849 
0.842316 
0.767719 
0.661605 
0.53334 
0.39518 
0.260977 
0.144666 
0.0586965 
0.0126097 
0.0119219 
0.0574501 
0.145163 
0.266583 
0.409686 
0.560209 
0.703206 
0.82467 
0.913044 
0.960435 
0.963405 
0.923244 
0.845702 
0.740228 
0.618802 
0.494513 
0.380055 
0.286319 
0.221244 
0.189065 
0.190028 
0.220594 
0.2741 
0.341767 
0.413931 
0.481327 
0.536259 
0.573523 
0.590945 
0.589503 
0.573003 
0.547378 
0.519699 
0.497053 
0.485426 
0.488758 
0.508292 
0.542317 
0.586335 
0.633639 
0.676225 
0.705927 
0.715614 
0.700298 
0.657994 
0.590211 
0.502007 
0.401563 
0.299347 
0.206931 
0.135623 
0.0950668 
0.0919935 
0.129273 
0.205401 
0.314486 
0.446762 
0.589562 
0.728661 
0.849827 
0.940399 
0.990716 
0.995217 
0.953096 
0.868413 
0.749664 
0.60885 
0.460157 
0.318395 
0.197384 
0.108475 
0.0593641 
0.0533473 
0.0890873 
0.160911 
0.259595 
0.373535 
0.490146 
0.597339 
0.684869 
0.745419 
0.775291 
0.774618 
0.747112 
0.699366 
0.639834 
0.577619 
0.52123 
0.477469 
0.450603 
0.441899 
0.449604 
0.469336 
0.494852 
0.519061 
0.535159 
0.537718 
0.523573 
0.492404 
0.446901 
0.392509 
0.336756 
0.288273 
0.255607 
0.245996 
0.264269 
0.312009 
0.387118 
0.483834 
0.593222 
0.704092 
0.804247 
0.881897 
0.92709 
0.932972 
0.896718 
0.820016 
0.709038 
0.573879 
0.427534 
0.284521 
0.159299 
0.0646783 
0.0103982 
0.00203846 
0.0403994 
0.121416 
0.236622 
0.374101 
0.519823 
0.659198 
0.778672 
0.867179 
0.917282 
0.925873 
0.894363 
0.828352 
0.736823 
0.630973 
0.522828 
0.423817 
0.343475 
0.288427 
0.261777 
0.262957 
0.288041 
0.330476 
0.382115 
0.434412 
0.479625 
0.511858 
0.527811 
0.527151 
0.512446 
0.48869 
0.462479 
0.440958 
0.430687 
0.436576 
0.461044 
0.503518 
0.56035 
0.625165 
0.689617 
0.744443 
0.780701 
0.791014 
0.770676 
0.718452 
0.63697 
0.532638 
0.415081 
0.296152 
0.188627 
0.104743 
0.0547406 
0.0456016 
0.0801289 
0.156492 
0.268301 
0.405204 
0.553958 
0.699835 
0.828228 
0.92624 
0.984106 
0.996253 
0.961892 
0.885076 
0.7742 
0.641035 
0.499385 
0.36354 
0.246703 
0.159579 
0.109284 
0.0986848 
0.126265 
0.186487 
0.270616 
0.367893 
0.466887 
0.556883 
0.629118 
0.677718 
0.700232 
0.697715 
0.674353 
0.63669 
0.592591 
0.550054 
0.516057 
0.495581 
0.49094 
0.501509 
0.523878 
0.552407 
0.580113 
0.599753 
0.604974 
0.591345 
0.557152 
0.503827 
0.435945 
0.360788 
0.287505 
0.225989 
0.185589 
0.173842 
0.195371 
0.251112 
0.337966 
0.448944 
0.5738 
0.700081 
0.814487 
0.904377 
0.959246 
0.971989 
0.939807 
0.864636 
0.753027 
0.615516 
0.465515 
0.317874 
0.187273 
0.0866201 
0.025654 
0.00990651 
0.0401409 
0.112333 
0.218189 
0.346136 
0.482667 
0.613869 
0.726968 
0.811694 
0.861326 
0.873285 
0.849231 
0.794658 
0.718048 
0.629708 
0.540437 
0.460189 
0.396905 
0.355655 
0.338176 
0.342876 
0.365267 
0.398774 
0.435789 
0.468843 
0.491715 
0.500338 
0.493392 
0.472475 
0.441862 
0.407866 
0.377892 
0.359313 
0.358321 
0.378909 
0.42213 
0.485735 
0.56426 
0.64955 
0.731672 
0.800117 
0.845124 
0.858975 
0.837098 
0.778808 
0.687616 
0.57102 
0.439819 
0.306996 
0.186312 
0.0907625 
0.0310877 
0.0145021 
0.0438099 
0.117008 
0.227432 
0.364433 
0.514512 
0.662777 
0.794563 
0.897022 
0.960501 
0.979551 
0.953451 
0.886195 
0.785945 
0.664028 
0.533594 
0.408106 
0.299832 
0.218531 
0.170466 
0.157867 
0.178892 
0.228069 
0.297162 
0.376327 
0.455425 
0.525298 
0.578872 
0.611936 
0.623512 
0.615778 
0.593572 
0.563538 
0.533056 
0.509093 
0.49713 
0.500323 
0.519003 
0.550591 
0.589932 
0.630019 
0.662998 
0.681329 
0.678943 
0.652237 
0.600774 
0.527568 
0.438927 
0.343844 
0.252998 
0.177501 
0.127521 
0.110967 
0.132395 
0.19228 
0.286763 
0.407901 
0.544423 
0.682886 
0.809138 
0.909882 
0.974186 
0.994741 
0.968733 
0.898208 
0.789893 
0.654484 
0.505492 
0.357762 
0.225864 
0.122507 
0.0571935 
0.035246 
0.057318 
0.119445 
0.213616 
0.32879 
0.45223 
0.570991 
0.673382 
0.75023 
0.795797 
0.808258 
0.789679 
0.745539 
0.683842 
0.61396 
0.545361 
0.486374 
0.443168 
0.419055 
0.414205 
0.425808 
0.448636 
0.475934 
0.500513 
0.515883 
0.517279 
0.502438 
0.472009 
0.429551 
0.381102 
0.33438 
0.297711 
0.278835 
0.283735 
0.315671 
0.374518 
0.456547 
0.554658 
0.659073 
0.7584 
0.840953 
0.896168 
0.915937 
0.8957 
0.835142 
0.738417 
0.613838 
0.473079 
0.329958 
0.198948 
0.093583 
0.0249453 
0.000409649 
0.0227982 
0.090043 
0.195399 
0.328181 
0.474946 
0.620974 
0.75188 
0.855168 
0.921553 
0.945892 
0.927628 
0.870705 
0.782969 
0.675143 
0.559501 
0.448409 
0.352912 
0.281529 
0.239406 
0.227909 
0.244698 
0.284256 
0.338796 
0.399409 
0.457314 
0.505027 
0.537315 
0.551801 
0.549162 
0.532881 
0.508621 
0.483283 
0.463905 
0.456533 
0.465246 
0.49144 
0.533502 
0.586903 
0.644723 
0.698531 
0.739508 
0.759691 
0.753138 
0.716891 
0.651582 
0.561596 
0.454765 
0.341601 
0.23416 
0.144668 
0.0840664 
0.0606625 
0.0790421 
0.139394 
0.237328 
0.364229 
0.508102 
0.654832 
0.789702 
0.899008 
0.971572 
0.999983 
0.981421 
0.917962 
0.816332 
0.687147 
0.543712 
0.400541 
0.271752 
0.169546 
0.102922 
0.0767895 
0.0915732 
0.143335 
0.2244 
0.324388 
0.431532 
0.534098 
0.621752 
0.68669 
0.724421 
0.734099 
0.718381 
0.68286 
0.635131 
0.583646 
0.536502 
0.500323 
0.479386 
0.475104 
0.485923 
0.507646 
0.534141 
0.558318 
0.573255 
0.573307 
0.55505 
0.517924 
0.464479 
0.400191 
0.332853 
0.271612 
0.225784 
0.203585 
0.210944 
0.250567 
0.321372 
0.418375 
0.533078 
0.654296 
0.769363 
0.865554 
0.931577 
0.958933 
0.942997 
0.883672 
0.78553 
0.657423 
0.511586 
0.362352 
0.224597 
0.112124 
0.0361497 
0.0040822 
0.0187247 
0.0780019 
0.175235 
0.299929 
0.438982 
0.578168 
0.703713 
0.803793 
0.869766 
0.897011 
0.885277 
0.838519 
0.76424 
0.672457 
0.574399 
0.481119 
0.402187 
0.344627 
0.312217 
0.305232 
0.320644 
0.352749 
0.394116 
0.436732 
0.473178 
0.497695 
0.506971 
0.50058 
0.480979 
0.453105 
0.423598 
0.399773 
0.388477 
0.394991 
0.422127 
0.469649 
0.534101 
0.609087 
0.685965 
0.754879 
0.806009 
0.830874 
0.823523 
0.781457 
0.706157 
0.603136 
0.481494 
0.353022 
0.230934 
0.128403 
0.0570418 
0.0255251 
0.0385239 
0.0960737 
0.193466 
0.321682 
0.46832 
0.618918 
0.758519 
0.8733 
0.952066 
0.987457 
0.97671 
0.9219 
0.829631 
0.710235 
0.576546 
0.442433 
0.321244 
0.224351 
0.159966 
0.132359 
0.141565 
0.18359 
0.25109 
0.334423 
0.422926 
0.506266 
0.575687 
0.624996 
0.651184 
0.654604 
0.638697 
0.609322 
0.573776 
0.539658 
0.513719 
0.500863 
0.503426 
0.520844 
0.549734 
0.584396 
0.617652 
0.641929 
0.650413 
0.638145 
0.602881 
0.54561 
0.47065 
0.385281 
0.29897 
0.222261 
0.165474 
0.137368 
0.143944 
0.187533 
0.266313 
0.374306 
0.501881 
0.636716 
0.765111 
0.873502 
0.95 
0.985773 
0.976104 
0.920997 
0.825251 
0.697991 
0.551708 
0.400912 
0.260552 
0.144398 
0.0635506 
0.0252745 
0.0322643 
0.0824412 
0.169288 
0.282679 
0.410099 
0.538108 
0.653857 
0.746504 
0.808336 
0.835494 
0.828208 
0.790544 
0.729697 
0.654934 
0.57633 
0.503468 
0.44425 
0.40399 
0.384876 
0.385881 
0.403102 
0.430485 
0.460831 
0.486929 
0.502672 
0.504003 
0.489551 
0.460877 
0.422297 
0.380294 
0.342604 
0.317094 
0.31058 
0.327744 
0.370311 
0.436585 
0.521437 
0.616746 
0.712258 
0.796764 
0.859456 
0.891291 
0.8862 
0.841977 
0.760733 
0.648844 
0.5164 
0.376177 
0.242289 
0.128627 
0.0473125 
0.00730345 
0.0133568 
0.0654467 
0.158722 
0.284009 
0.428801 
0.578623 
0.718618 
0.835153 
0.917287 
0.957908 
0.954424 
0.908931 
0.827847 
0.721063 
0.600723 
0.479779 
0.370509 
0.283153 
0.224854 
0.199001 
0.205047 
0.238819 
0.293252 
0.359452 
0.427939 
0.489906 
0.538338 
0.56884 
0.580087 
0.573827 
0.554469 
0.528302 
0.502466 
0.483817 
0.477842 
0.487773 
0.51403 
0.554061 
0.602617 
0.652423 
0.695163 
0.722652 
0.728035 
0.706862 
0.65788 
0.583435 
0.489415 
0.384729 
0.280376 
0.188194 
0.119462 
0.0835026 
0.0864716 
0.130484 
0.213193 
0.327885 
0.464093 
0.608659 
0.747137 
0.865372 
0.951069 
0.995178 
0.992913 
0.944314 
0.854251 
0.731893 
0.589691 
0.442005 
0.303518 
0.187643 
0.105088 
0.0627535 
0.06309 
0.103965 
0.179064 
0.278755 
0.391305 
0.504307 
0.606119 
0.687171 
0.740955 
0.764619 
0.759073 
0.728636 
0.680269 
0.622504 
0.564222 
0.51344 
0.47626 
0.456126 
0.453465 
0.465766 
0.488074 
0.513823 
0.535894 
0.54775 
0.544492 
0.523685 
0.485839 
0.43448 
0.375783 
0.317818 
0.26949 
0.239327 
0.234254 
0.258532 
0.312995 
0.394704 
0.497071 
0.610455 
0.723168 
0.822781 
0.897572 
0.937946 
0.937653 
0.894638 
0.811435 
0.695029 
0.556193 
0.408383 
0.266297 
0.144281 
0.0547444 
0.00678959 
0.00520631 
0.0499476 
0.136151 
0.254702 
0.393266 
0.537677 
0.673509 
0.787651 
0.869704 
0.913037 
0.915389 
0.87895 
0.809938 
0.717709 
0.613548 
0.50927 
0.415822 
0.342042 
0.293735 
0.273163 
0.278996 
0.30673 
0.349478 
0.399054 
0.447171 
0.48661 
0.512194 
0.521457 
0.514901 
0.495832 
0.469788 
0.443652 
0.42456 
0.418767 
0.430625 
0.461805 
0.510897 
0.573423 
0.642299 
0.70867 
0.763033 
0.796504 
0.802055 
0.775574 
0.716595 
0.62859 
0.518783 
0.397483 
0.27701 
0.170335 
0.0895866 
0.044615 
0.0417724 
0.0830748 
0.165845 
0.282891 
0.423208 
0.573125 
0.71777 
0.842687 
0.935417 
0.986854 
0.992227 
0.951597 
0.869798 
0.755849 
0.621905 
0.481868 
0.349824 
0.238504 
0.157922 
0.114375 
0.109889 
0.142181 
0.205124 
0.289647 
0.384936 
0.479813 
0.564077 
0.629679 
0.671576 
0.688156 
0.681214 
0.655489 
0.617823 
0.576078 
0.537959 
0.509893 
0.496118 
0.498111 
0.514418 
0.540911 
0.571434 
0.598756 
0.615683 
0.616198 
0.59646 
0.55552 
0.49565 
0.422247 
0.34328 
0.268377 
0.207631 
0.170296 
0.163526 
0.191322 
0.253836 
0.347121 
0.463387 
0.591725 
0.719248 
0.832499 
0.918983 
0.96862 
0.974959 
0.936002 
0.854531 
0.737886 
0.597231 
0.446372 
0.300267 
0.173402 
0.0782187 
0.023773 
0.014781 
0.0511616 
0.128122 
0.236773 
0.365192 
0.499812 
0.626961 
0.734369 
0.81248 
0.855398 
0.861384 
0.832846 
0.775836 
0.699142 
0.613081 
0.528168 
0.453812 
0.397217 
0.362616 
0.350917 
0.359804 
0.384266 
0.417468 
0.451843 
0.480249 
0.497046 
0.49893 
0.485419 
0.458935 
0.424447 
0.388753 
0.35947 
0.343886 
0.347816 
0.37464 
0.42463 
0.494693 
0.578555 
0.667395 
0.750837 
0.818206 
0.859874 
0.868545 
0.84029 
0.775224 
0.677703 
0.556018 
0.421603 
0.287843 
0.168616 
0.0767367 
0.0224847 
0.0123974 
0.0484666 
0.127844 
0.243093 
0.382961 
0.533591 
0.680021 
0.807818 
0.90463 
0.961512 
0.973838 
0.941728 
0.869927 
0.767166 
0.645086 
0.516857 
0.395665 
0.293244 
0.218619 
0.177218 
0.170439 
0.195713 
0.247037 
0.315904 
0.392502 
0.46701 
0.530845 
0.577688 
0.604168 
0.610132 
0.598459 
0.574477 
0.545056 
0.517497 
0.498401 
0.492642 
0.5026 
0.527761 
0.564734 
0.607693 
0.649178 
0.68116 
0.696223 
0.688707 
0.655651 
0.59741 
0.517848 
0.424066 
0.325699 
0.233837 
0.15972 
0.113343 
0.102164 
0.130067 
0.196718 
0.297412 
0.423431 
0.562891 
0.701985 
0.82648 
0.923299 
0.982 
0.995976 
0.963234 
0.886664 
0.773745 
0.635752 
0.486517 
0.340917 
0.213253 
0.115707 
0.0570556 
0.0417867 
0.0697197 
0.136158 
0.23255 
0.347579 
0.468525 
0.582754 
0.679144 
0.74927 
0.788236 
0.795039 
0.772457 
0.726466 
0.665301 
0.598271 
0.534483 
0.481668 
0.445222 
0.427613 
0.428197 
0.443484 
0.467786 
0.494166 
0.515547 
0.525839 
0.520914 
0.499296 
0.462483 
0.414833 
0.363031 
0.315215 
0.279848 
0.264506 
0.274733 
0.31312 
0.378737 
0.467009 
0.570055 
0.67748 
0.777516 
0.858389 
0.909744 
0.923956 
0.897159 
0.829859 
0.727053 
0.597813 
0.454396 
0.310952 
0.181996 
0.0808039 
0.0179363 
4.69194e-05 
0.0291271 
0.102272 
0.212 
0.347078 
0.493778 
0.637386 
0.76382 
0.861144 
0.920818 
0.938538 
0.914574 
0.853582 
0.763919 
0.656547 
0.543683 
0.437347 
0.347988 
0.283359 
0.247761 
0.241745 
0.262285 
0.303396 
0.357096 
0.414581 
0.467462 
0.508882 
0.534395 
0.542472 
0.534588 
0.514886 
0.489454 
0.46534 
0.449428 
0.447333 
0.462473 
0.49544 
0.543774 
0.602165 
0.663067 
0.717662 
0.757037 
0.773425 
0.761361 
0.718575 
0.646515 
0.550413 
0.438864 
0.322969 
0.215127 
0.127612 
0.0711205 
0.0534446 
0.0784546 
0.14551 
0.249383 
0.380716 
0.526961 
0.673704 
0.806228 
0.911123 
0.977761 
0.999473 
0.974275 
0.905073 
0.799312 
0.668123 
0.525063 
0.384597 
0.260507 
0.164406 
0.104528 
0.0849422 
0.105253 
0.160832 
0.243526 
0.342754 
0.446841 
0.544436 
0.625827 
0.683993 
0.715289 
0.719673 
0.700465 
0.663694 
0.61711 
0.569023 
0.527105 
0.497327 
0.483166 
0.485187 
0.501048 
0.525923 
0.553285 
0.575936 
0.587144 
0.581732 
0.556957 
0.513075 
0.45348 
0.384417 
0.314275 
0.252553 
0.208627 
0.190474 
0.203518 
0.249755 
0.327275 
0.430255 
0.54945 
0.673113 
0.788273 
0.882194 
0.943866 
0.965335 
0.942712 
0.876735 
0.772809 
0.640507 
0.492591 
0.343652 
0.208529 
0.100697 
0.0307928 
0.00546443 
0.0266733 
0.0915233 
0.192638 
0.319039 
0.457411 
0.593611 
0.71424 
0.808087 
0.867291 
0.888077 
0.871 
0.820683 
0.745076 
0.65436 
0.559632 
0.471526 
0.398969 
0.348186 
0.322108 
0.320218 
0.338852 
0.371903 
0.411822 
0.450775 
0.481805 
0.499826 
0.50234 
0.489766 
0.465334 
0.434584 
0.404517 
0.382517 
0.375203 
0.387358 
0.42109 
0.475337 
0.545803 
0.625341 
0.704738 
0.773825 
0.822759 
0.843335 
0.830136 
0.781396 
0.69943 
0.590583 
0.464686 
0.334058 
0.212185 
0.112214 
0.0454355 
0.0199526 
0.0396818 
0.103817 
0.206827 
0.338991 
0.487412 
0.637407 
0.774094 
0.884014 
0.956579 
0.985206 
0.967976 
0.907774 
0.81188 
0.691077 
0.558376 
0.427523 
0.311458 
0.220912 
0.163303 
0.142056 
0.15641 
0.201726 
0.270251 
0.352213 
0.437121 
0.515093 
0.578041 
0.620583 
0.640556 
0.63909 
0.620236 
0.590221 
0.556423 
0.526223 
0.505881 
0.499601 
0.508899 
0.532368 
0.565868 
0.603122 
0.63663 
0.658787 
0.663044 
0.644969 
0.603045 
0.539094 
0.458269 
0.368582 
0.28004 
0.203467 
0.149165 
0.125584 
0.138156 
0.188466 
0.27385 
0.387505 
0.519091 
0.655787 
0.783658 
0.889207 
0.9609 
0.990505 
0.974076 
0.912463 
0.811278 
0.680325 
0.532559 
0.382672 
0.245502 
0.134419 
0.0598902 
0.0283902 
0.0417668 
0.0971425 
0.18735 
0.301844 
0.427972 
0.552454 
0.662883 
0.749081 
0.804143 
0.825054 
0.812826 
0.772144 
0.710579 
0.637487 
0.562736 
0.495425 
0.442765 
0.409247 
0.396219 
0.401892 
0.421779 
0.449494 
0.477795 
0.499727 
0.509705 
0.504392 
0.483247 
0.448668 
0.405709 
0.361401 
0.323767 
0.300669 
0.298619 
0.321743 
0.371019 
0.443915 
0.534472 
0.633856 
0.731305 
0.815367 
0.875289 
0.902375 
0.89115 
0.840173 
0.752401 
0.635026 
0.498823 
0.357039 
0.223981 
0.113439 
0.0371421 
0.00342252 
0.0162505 
0.0747532 
0.173278 
0.301995 
0.447968 
0.596576 
0.733112 
0.844376 
0.920087 
0.953934 
0.944174 
0.893685 
0.809512 
0.70193 
0.583184 
0.466027 
0.362262 
0.281443 
0.229895 
0.210162 
0.220933 
0.257444 
0.312288 
0.37652 
0.440904 
0.497148 
0.538952 
0.562749 
0.568052 
0.557353 
0.535615 
0.509425 
0.485926 
0.471681 
0.471628 
0.488257 
0.521152 
0.56693 
0.619625 
0.671444 
0.713819 
0.73861 
0.739301 
0.712028 
0.6563 
0.575306 
0.475753 
0.367243 
0.261251 
0.169821 
0.104137 
0.0731423 
0.0823707 
0.133155 
0.222302 
0.342294 
0.482 
0.627825 
0.765167 
0.880012 
0.960489 
0.9982 
0.98916 
0.934255 
0.839143 
0.713624 
0.570545 
0.424376 
0.28961 
0.179194 
0.103154 
0.0675769 
0.0740674 
0.119724 
0.197635 
0.297816 
0.408474 
0.517437 
0.613569 
0.688009 
0.735078 
0.75276 
0.742715 
0.709824 
0.661355 
0.605851 
0.551913 
0.507013 
0.476519 
0.463039 
0.466167 
0.482669 
0.507066 
0.532529 
0.551976 
0.559198 
0.549875 
0.522329 
0.477914 
0.420977 
0.358391 
0.298709 
0.251054 
0.223868 
0.223705 
0.254211 
0.315443 
0.403615 
0.511331 
0.628281 
0.742332 
0.840886 
0.912356 
0.947561 
0.940897 
0.891105 
0.801568 
0.68006 
0.537994 
0.389228 
0.248582 
0.13022 
0.0460943 
0.0046324 
0.00981173 
0.06074 
0.151781 
0.273216 
0.41235 
0.554945 
0.686802 
0.795308 
0.870768 
0.907374 
0.903707 
0.862711 
0.79117 
0.698759 
0.596785 
0.49679 
0.409184 
0.342076 
0.300437 
0.285695 
0.295792 
0.325689 
0.368231 
0.415257 
0.458799 
0.492208 
0.511063 
0.513738 
0.501559 
0.478535 
0.450699 
0.425156 
0.40897 
0.408032 
0.426086 
0.46403 
0.519608 
0.587531 
0.660041 
0.727827 
0.781211 
0.81143 
0.811864 
0.779039 
0.713284 
0.618916 
0.503955 
0.379355 
0.257849 
0.152535 
0.075373 
0.0357648 
0.0393919 
0.0874616 
0.176451 
0.29839 
0.441663 
0.592228 
0.735134 
0.856141 
0.94328 
0.988141 
0.98678 
0.940095 
0.853679 
0.737128 
0.602923 
0.464997 
0.337174 
0.231655 
0.157732 
0.120866 
0.12225 
0.158867 
0.22405 
0.308445 
0.401259 
0.491618 
0.569889 
0.628773 
0.664063 
0.674976 
0.664015 
0.636421 
0.599269 
0.560358 
0.527038 
0.505136 
0.498119 
0.506621 
0.528373 
0.558566 
0.590583 
0.617004 
0.630749 
0.6262 
0.600147 
0.55243 
0.486171 
0.407563 
0.325227 
0.249211 
0.189748 
0.155932 
0.154477 
0.188719 
0.258003 
0.357539 
0.478753 
0.610118 
0.738368 
0.849957 
0.932597 
0.976687 
0.976471 
0.93077 
0.843209 
0.72189 
0.57856 
0.42736 
0.28329 
0.160583 
0.0711605 
0.0233574 
0.02106 
0.0633503 
0.144697 
0.255661 
0.384033 
0.516251 
0.638943 
0.740396 
0.811798 
0.848092 
0.848369 
0.815747 
0.756792 
0.680533 
0.597234 
0.517063 
0.448837 
0.398995 
0.370924 
0.364717 
0.37737 
0.403403 
0.435784 
0.467047 
0.490441 
0.500953 
0.496062 
0.476136 
0.444396 
0.40647 
0.369586 
0.341508 
0.329374 
0.33857 
0.371814 
0.428578 
0.504921 
0.593785 
0.685723 
0.769971 
0.835755 
0.873645 
0.876815 
0.842026 
0.770209 
0.666563 
0.540147 
0.402984 
0.268804 
0.151537 
0.0637519 
0.015218 
0.0117571 
0.0545327 
0.139858 
0.259553 
0.40181 
0.552472 
0.696575 
0.819974 
0.910869 
0.961054 
0.966741 
0.928878 
0.852932 
0.748149 
0.626424 
0.500883 
0.384377 
0.288052 
0.220172 
0.185323 
0.184082 
0.213188 
0.26616 
0.334285 
0.407843 
0.477393 
0.534972 
0.575043 
0.595082 
0.59574 
0.580561 
0.555311 
0.527016 
0.502839 
0.488958 
0.489594 
0.506328 
0.537798 
0.579827 
0.625954 
0.668325 
0.698799 
0.710149 
0.697179 
0.657611 
0.592612 
0.506892 
0.408322 
0.307134 
0.214773 
0.14254 
0.100194 
0.0946897 
0.129202 
0.20257 
0.30925 
0.439776 
0.581698 
0.720904 
0.843145 
0.935628 
0.988452 
0.995743 
0.956347 
0.873982 
0.756855 
0.616764 
0.467805 
0.32482 
0.201784 
0.1103 
0.0583851 
0.0496872 
0.0832036 
0.153539 
0.251657 
0.366022 
0.483999 
0.593325 
0.68349 
0.746848 
0.779348 
0.780798 
0.754641 
0.707303 
0.647187 
0.583469 
0.524845 
0.478398 
0.448729 
0.437458 
0.443149 
0.461675 
0.486942 
0.511891 
0.529626 
0.534513 
0.523097 
0.494716 
0.451713 
0.399218 
0.344524 
0.296129 
0.262569 
0.251194 
0.267052 
0.31203 
0.384375 
0.478669 
0.58628 
0.696242 
0.79647 
0.875165 
0.922245 
0.930619 
0.897151 
0.823182 
0.71454 
0.58103 
0.43544 
0.292193 
0.165779 
0.0691556 
0.0123133 
0.00115203 
0.0368222 
0.115596 
0.229285 
0.366166 
0.512281 
0.652992 
0.774578 
0.865709 
0.918619 
0.92985 
0.900483 
0.835851 
0.744763 
0.638361 
0.52874 
0.427515 
0.344497 
0.286644 
0.257413 
0.256556 
0.280405 
0.322559 
0.374906 
0.428813 
0.476336 
0.511289 
0.530034 
0.531888 
0.519105 
0.496439 
0.470348 
0.447965 
0.435955 
0.439447 
0.461159 
0.500862 
0.555256 
0.618269 
0.681782 
0.736648 
0.77392 
0.786095 
0.768234 
0.718792 
0.640049 
0.538072 
0.422191 
0.304048 
0.196323 
0.111276 
0.0592945 
0.047607 
0.0793351 
0.152999 
0.262544 
0.397904 
0.546026 
0.692264 
0.821964 
0.922066 
0.982544 
0.997498 
0.965789 
0.891136 
0.781667 
0.648976 
0.506807 
0.369514 
0.250483 
0.160693 
0.107592 
0.0943987 
0.11992 
0.178877 
0.262693 
0.360646 
0.461222 
0.553509 
0.628456 
0.679851 
0.704893 
0.704323 
0.68208 
0.644571 
0.599641 
0.555391 
0.519014 
0.495789 
0.488372 
0.496487 
0.517029 
0.544588 
0.5723 
0.592924 
0.599983 
0.588815 
0.557399 
0.506821 
0.441311 
0.367856 
0.295391 
0.233707 
0.192174 
0.178472 
0.197467 
0.250411 
0.334556 
0.443251 
0.566536 
0.692154 
0.806888 
0.898056 
0.954993 
0.970335 
0.94096 
0.86845 
0.759027 
0.622951 
0.473456 
0.325328 
0.193309 
0.0904821 
0.0268601 
0.00830583 
0.0359336 
0.106045 
0.210606 
0.338207 
0.475382 
0.60814 
0.72351 
0.810939 
0.863369 
0.877871 
0.855786 
0.802363 
0.72594 
0.6368 
0.545843 
0.463232 
0.397206 
0.353175 
0.333226 
0.336074 
0.357465 
0.390945 
0.428913 
0.46378 
0.489096 
0.500492 
0.496299 
0.477772 
0.448886 
0.41574 
0.385631 
0.36595 
0.363026 
0.381094 
0.421521 
0.48241 
0.558633 
0.642325 
0.723752 
0.792492 
0.838747 
0.854644 
0.835353 
0.779869 
0.691349 
0.576959 
0.447221 
0.314936 
0.193797 
0.0968579 
0.0350309 
0.0158002 
0.0423006 
0.11288 
0.221201 
0.356879 
0.506578 
0.655455 
0.788769 
0.89348 
0.959654 
0.981504 
0.957961 
0.892697 
0.793627 
0.671929 
0.540727 
0.413579 
0.302962 
0.218925 
0.168075 
0.15299 
0.172139 
0.220284 
0.289318 
0.369405 
0.45029 
0.522592 
0.578933 
0.614756 
0.628739 
0.622759 
0.601434 
0.571298 
0.539744 
0.513873 
0.499405 
0.499807 
0.515762 
0.54503 
0.582746 
0.622106 
0.655348 
0.674897 
0.674534 
0.650402 
0.601742 
0.531218 
0.444804 
0.351211 
0.260936 
0.185017 
0.133676 
0.114991 
0.133785 
0.190862 
0.282714 
0.401729 
0.536897 
0.674949 
0.801781 
0.904025 
0.970561 
0.993801 
0.970596 
0.902641 
0.796341 
0.662142 
0.513402 
0.364936 
0.231405 
0.125721 
0.0576805 
0.0329443 
0.0525154 
0.112742 
0.20585 
0.320933 
0.445263 
0.565785 
0.670588 
0.750197 
0.79853 
0.813414 
0.796615 
0.753387 
0.691621 
0.620698 
0.550215 
0.488738 
0.442746 
0.4159 
0.408711 
0.418662 
0.440731 
0.468259 
0.494027 
0.511397 
0.515354 
0.503313 
0.475576 
0.435364 
0.388435 
0.342316 
0.305257 
0.285048 
0.287839 
0.317152 
0.373192 
0.452579 
0.548544 
0.651578 
0.75046 
0.833561 
0.890248 
0.912229 
0.894667 
0.836914 
0.742772 
0.620232 
0.480712 
0.337876 
0.206161 
0.0991901 
0.0282451 
0.000989612 
0.0205858 
0.0853149 
0.188746 
0.320435 
0.467076 
0.613963 
0.746604 
0.852287 
0.921427 
0.948537 
0.932714 
0.877595 
0.790802 
0.682941 
0.566288 
0.453337 
0.355364 
0.281199 
0.236336 
0.222483 
0.237593 
0.276361 
0.331097 
0.39287 
0.452751 
0.503011 
0.538098 
0.555285 
0.554911 
0.540177 
0.516552 
0.490858 
0.470175 
0.460717 
0.466819 
0.490206 
0.529615 
0.580849 
0.63726 
0.69059 
0.732083 
0.753709 
0.749348 
0.715766 
0.653263 
0.565873 
0.461103 
0.349208 
0.242085 
0.15192 
0.089739 
0.0640467 
0.0797149 
0.137271 
0.232675 
0.357627 
0.500377 
0.646949 
0.782647 
0.893662 
0.968604 
0.999764 
0.983979 
0.922976 
0.823175 
0.694964 
0.551527 
0.407375 
0.276753 
0.172087 
0.102686 
0.073806 
0.0862152 
0.136272 
0.216515 
0.316667 
0.42494 
0.52946 
0.619646 
0.68738 
0.727821 
0.739783 
0.72564 
0.690786 
0.642733 
0.589974 
0.540765 
0.501987 
0.478244 
0.471299 
0.47993 
0.500214 
0.5262 
0.55086 
0.567212 
0.569435 
0.553833 
0.519514 
0.468677 
0.406473 
0.340432 
0.279542 
0.233073 
0.209322 
0.214412 
0.251333 
0.319339 
0.413798 
0.526529 
0.646593 
0.761469 
0.858457 
0.926163 
0.955879 
0.942685 
0.886141 
0.790471 
0.664218 
0.519387 
0.370182 
0.231478 
0.117196 
0.0387787 
0.00393925 
0.0158277 
0.072713 
0.168215 
0.292056 
0.43124 
0.571525 
0.698999 
0.801597 
0.870363 
0.900326 
0.890897 
0.845739 
0.772159 
0.680085 
0.580782 
0.485459 
0.403942 
0.343577 
0.308494 
0.299301 
0.313246 
0.344809 
0.386627 
0.430629 
0.469226 
0.496386 
0.50847 
0.504698 
0.487203 
0.460656 
0.431533 
0.407099 
0.394278 
0.398543 
0.422985 
0.467706 
0.5296 
0.602591 
0.678286 
0.746976 
0.798871 
0.825393 
0.820384 
0.781052 
0.708537 
0.608003 
0.488241 
0.360804 
0.238779 
0.135331 
0.0621854 
0.0282418 
0.0384741 
0.0932636 
0.188247 
0.314707 
0.46046 
0.611156 
0.751826 
0.868511 
0.949781 
0.987962 
0.979941 
0.927453 
0.836813 
0.718147 
0.5842 
0.448872 
0.325663 
0.226197 
0.159008 
0.128719 
0.135696 
0.176226 
0.243152 
0.326903 
0.416764 
0.502233 
0.574286 
0.626403 
0.655223 
0.66077 
0.646219 
0.61726 
0.581137 
0.545523 
0.517354 
0.501813 
0.501574 
0.51642 
0.543292 
0.57674 
0.60974 
0.63475 
0.644865 
0.63492 
0.602383 
0.547901 
0.475444 
0.391979 
0.306734 
0.23012 
0.172446 
0.142583 
0.146748 
0.187576 
0.26359 
0.369158 
0.49495 
0.628869 
0.75733 
0.866759 
0.945137 
0.983399 
0.976516 
0.924142 
0.830737 
0.705132 
0.559612 
0.40859 
0.267045 
0.148893 
0.065487 
0.0244098 
0.0287067 
0.0766354 
0.16196 
0.274744 
0.40255 
0.531888 
0.649744 
0.745012 
0.809651 
0.839452 
0.834314 
0.798036 
0.737637 
0.66233 
0.582258 
0.507186 
0.445294 
0.402228 
0.38053 
0.379494 
0.395472 
0.422567 
0.453613 
0.481314 
0.499362 
0.503412 
0.491753 
0.465596 
0.428944 
0.388037 
0.350476 
0.324111 
0.315864 
0.330635 
0.370447 
0.43395 
0.51636 
0.609861 
0.704426 
0.788965 
0.852663 
0.886355 
0.883738 
0.842296 
0.763792 
0.654263 
0.5235 
0.384071 
0.24999 
0.135173 
0.0518843 
0.00933003 
0.0125848 
0.0619726 
0.15298 
0.276717 
0.42087 
0.571046 
0.71234 
0.83096 
0.915703 
0.959131 
0.958301 
0.914978 
0.835307 
0.729004 
0.608152 
0.485768 
0.374308 
0.284288 
0.223184 
0.194733 
0.198715 
0.231215 
0.285326 
0.352196 
0.422259 
0.486512 
0.537654 
0.570953 
0.584731 
0.580422 
0.562191 
0.536185 
0.509526 
0.48917 
0.48082 
0.488003 
0.511483 
0.549056 
0.595779 
0.644607 
0.687347 
0.715812 
0.723026 
0.704311 
0.658106 
0.586408 
0.494765 
0.391787 
0.288259 
0.195917 
0.12606 
0.0881503 
0.0885881 
0.129805 
0.209802 
0.322208 
0.456838 
0.600733 
0.739532 
0.859038 
0.946798 
0.993503 
0.994044 
0.94811 
0.860237 
0.73932 
0.597632 
0.449466 
0.309568 
0.191525 
0.106315 
0.0611743 
0.0589012 
0.0976906 
0.171488 
0.270824 
0.384012 
0.498562 
0.602641 
0.686394 
0.742978 
0.769187 
0.765616 
0.736336 
0.688164 
0.629606 
0.569644 
0.516503 
0.476583 
0.453668 
0.448532 
0.458976 
0.480275 
0.505991 
0.529007 
0.542669 
0.541853 
0.523817 
0.488725 
0.43976 
0.382798 
0.325689 
0.277234 
0.245976 
0.238977 
0.260738 
0.312408 
0.391398 
0.49146 
0.603239 
0.71525 
0.81515 
0.891182 
0.933597 
0.935887 
0.895676 
0.815149 
0.700953 
0.563587 
0.416322 
0.27379 
0.150391 
0.0587066 
0.00810925 
0.00371849 
0.0458383 
0.129934 
0.247154 
0.385331 
0.530347 
0.6677 
0.784089 
0.868835 
0.914969 
0.91988 
0.88544 
0.817614 
0.725613 
0.620691 
0.51476 
0.418972 
0.342458 
0.291365 
0.268304 
0.272255 
0.298949 
0.341631 
0.392121 
0.44202 
0.483883 
0.512233 
0.524257 
0.520112 
0.502802 
0.477647 
0.451417 
0.43126 
0.423565 
0.43292 
0.461312 
0.507676 
0.567878 
0.635123 
0.700759 
0.755377 
0.790059 
0.797627 
0.773717 
0.717541 
0.632221 
0.524645 
0.404843 
0.284948 
0.177858 
0.0957551 
0.0486577 
0.0431839 
0.0816785 
0.161816 
0.276733 
0.41569 
0.565187 
0.710404 
0.836815 
0.931773 
0.985892 
0.994069 
0.956012 
0.876233 
0.763501 
0.629817 
0.489051 
0.355381 
0.241739 
0.158431 
0.112095 
0.105104 
0.135489 
0.197363 
0.281786 
0.377959 
0.474591 
0.561262 
0.629625 
0.674289 
0.693296 
0.68814 
0.663334 
0.625606 
0.582827 
0.542831 
0.512277 
0.495717 
0.494975 
0.508939 
0.533774 
0.563532 
0.591075 
0.609184 
0.611694 
0.594513 
0.556373 
0.499198 
0.428045 
0.350604 
0.276311 
0.215183 
0.176523 
0.167648 
0.192825 
0.252531 
0.343173 
0.457288 
0.584237 
0.711308 
0.8251 
0.913049 
0.964893 
0.973904 
0.937753 
0.858868 
0.744267 
0.604858 
0.454292 
0.307489 
0.179024 
0.0815383 
0.0243748 
0.0125897 
0.0464511 
0.121481 
0.229032 
0.357318 
0.492791 
0.621669 
0.731468 
0.812333 
0.858023 
0.866453 
0.839725 
0.783665 
0.706943 
0.619879 
0.533113 
0.456285 
0.39691 
0.359567 
0.345506 
0.352709 
0.376373 
0.409764 
0.445291 
0.475668 
0.495009 
0.499691 
0.488884 
0.464669 
0.431734 
0.396683 
0.367051 
0.35017 
0.352018 
0.376234 
0.423418 
0.490825 
0.572516 
0.659938 
0.742896 
0.810773 
0.853879 
0.864736 
0.839143 
0.776883 
0.681961 
0.562343 
0.429204 
0.295769 
0.175877 
0.0824246 
0.0258888 
0.0130921 
0.046365 
0.123209 
0.236503 
0.375241 
0.525706 
0.672957 
0.802456 
0.901642 
0.961271 
0.976374 
0.946725 
0.87676 
0.77498 
0.652904 
0.523702 
0.400682 
0.295805 
0.218404 
0.174254 
0.165097 
0.18866 
0.239155 
0.308179 
0.385898 
0.462354 
0.528718 
0.578356 
0.607548 
0.615801 
0.605709 
0.582402 
0.552664 
0.523837 
0.502682 
0.494328 
0.50148 
0.523975 
0.558756 
0.60027 
0.641237 
0.673694 
0.690166 
0.684816 
0.654412 
0.598979 
0.522027 
0.430334 
0.333272 
0.241768 
0.167018 
0.119096 
0.105652 
0.130854 
0.194706 
0.292853 
0.416895 
0.555194 
0.694089 
0.819373 
0.917869 
0.978926 
0.995642 
0.965683 
0.891588 
0.78053 
0.643549 
0.494351 
0.347809 
0.218342 
0.118357 
0.0569345 
0.0389101 
0.0644471 
0.129148 
0.22468 
0.339832 
0.461869 
0.578023 
0.676927 
0.749845 
0.791531 
0.800643 
0.779668 
0.734383 
0.672936 
0.604667 
0.538842 
0.483445 
0.444195 
0.423909 
0.42228 
0.436094 
0.459847 
0.486669 
0.50943 
0.521868 
0.519583 
0.500773 
0.466583 
0.421043 
0.370576 
0.323151 
0.287182 
0.270322 
0.278304 
0.314 
0.376816 
0.462526 
0.563571 
0.669806 
0.769611 
0.851241 
0.904247 
0.920797 
0.896732 
0.832219 
0.731903 
0.604548 
0.462174 
0.318801 
0.188934 
0.0859641 
0.0206736 
1.9015e-05 
0.0263375 
0.0970698 
0.205035 
0.339221 
0.486011 
0.63068 
0.759014 
0.858838 
0.9213 
0.941748 
0.920111 
0.860755 
0.771829 
0.664206 
0.550134 
0.441784 
0.349855 
0.282423 
0.24414 
0.235891 
0.25493 
0.295459 
0.349569 
0.408406 
0.46341 
0.50746 
0.53578 
0.546491 
0.54074 
0.522401 
0.497392 
0.472709 
0.455307 
0.450987 
0.463445 
0.493609 
0.539369 
0.595735 
0.655417 
0.709749 
0.749848 
0.767861 
0.758116 
0.718055 
0.648786 
0.55519 
0.44555 
0.330728 
0.222989 
0.134595 
0.0763512 
0.0562691 
0.0785198 
0.142808 
0.244252 
0.373797 
0.519118 
0.665918 
0.799473 
0.906243 
0.975366 
0.999862 
0.977401 
0.910543 
0.806444 
0.676024 
0.532746 
0.391102 
0.265021 
0.166363 
0.103685 
0.0814041 
0.0994622 
0.153512 
0.235593 
0.335198 
0.440607 
0.540305 
0.624313 
0.685286 
0.719228 
0.725765 
0.707949 
0.671634 
0.624514 
0.574965 
0.530842 
0.498392 
0.481426 
0.480859 
0.494674 
0.518299 
0.545364 
0.568709 
0.581514 
0.578402 
0.556345 
0.515255 
0.458181 
0.391052 
0.322014 
0.260428 
0.215654 
0.195774 
0.206429 
0.249914 
0.32466 
0.425195 
0.542576 
0.665285 
0.780469 
0.87539 
0.938913 
0.962851 
0.943008 
0.879774 
0.778211 
0.647597 
0.500483 
0.351358 
0.215087 
0.105287 
0.0328405 
0.00471421 
0.0232189 
0.0857965 
0.185355 
0.31111 
0.449827 
0.58732 
0.710029 
0.806482 
0.868493 
0.891935 
0.877033 
0.828136 
0.753017 
0.661797 
0.565635 
0.475345 
0.400126 
0.346537 
0.317859 
0.3139 
0.331255 
0.363976 
0.404557 
0.44508 
0.478391 
0.49912 
0.504431 
0.494392 
0.471917 
0.442302 
0.412404 
0.389587 
0.380572 
0.390356 
0.421342 
0.472811 
0.540815 
0.618514 
0.696926 
0.766004 
0.815908 
0.838309 
0.827564 
0.781599 
0.702383 
0.595917 
0.471733 
0.341938 
0.219914 
0.118824 
0.050101 
0.0220903 
0.0390243 
0.100447 
0.201166 
0.331745 
0.479488 
0.629796 
0.767747 
0.879724 
0.954883 
0.986315 
0.971752 
0.913745 
0.8193 
0.699018 
0.565845 
0.433587 
0.315358 
0.222161 
0.161745 
0.137886 
0.150149 
0.194157 
0.262319 
0.344911 
0.431361 
0.511595 
0.577243 
0.622584 
0.645107 
0.64562 
0.62793 
0.598118 
0.563535 
0.531661 
0.508965 
0.499946 
0.506461 
0.527452 
0.559089 
0.595328 
0.628795 
0.651889 
0.657946 
0.642309 
0.603155 
0.541961 
0.463533 
0.375586 
0.287909 
0.211216 
0.155827 
0.130324 
0.140383 
0.187902 
0.270565 
0.381909 
0.511884 
0.64787 
0.776021 
0.882804 
0.956532 
0.988718 
0.975094 
0.916157 
0.817187 
0.687711 
0.540498 
0.390172 
0.251625 
0.1384 
0.0612314 
0.0269239 
0.0376762 
0.090939 
0.179809 
0.293908 
0.420634 
0.54663 
0.659302 
0.74819 
0.806054 
0.829527 
0.819304 
0.779815 
0.718485 
0.644639 
0.568241 
0.498595 
0.443202 
0.406898 
0.391377 
0.395162 
0.414003 
0.441644 
0.470852 
0.494559 
0.506958 
0.504409 
0.486026 
0.453862 
0.412669 
0.369256 
0.331536 
0.30738 
0.303434 
0.324059 
0.370548 
0.440714 
0.528942 
0.626689 
0.723396 
0.807704 
0.868831 
0.897929 
0.889272 
0.841098 
0.756012 
0.640873 
0.506174 
0.364976 
0.231511 
0.119621 
0.0412036 
0.00485549 
0.0148758 
0.0707428 
0.167133 
0.294484 
0.440029 
0.589203 
0.727225 
0.840712 
0.919103 
0.955755 
0.94857 
0.900108 
0.817158 
0.709844 
0.590376 
0.471599 
0.365517 
0.281974 
0.227635 
0.205394 
0.214253 
0.249687 
0.304424 
0.369532 
0.435665 
0.494313 
0.538875 
0.565441 
0.573176 
0.564267 
0.543456 
0.517212 
0.492686 
0.47657 
0.474033 
0.487879 
0.518037 
0.561468 
0.612498 
0.663543 
0.706133 
0.732099 
0.734779 
0.71006 
0.657132 
0.578834 
0.481537 
0.374559 
0.269184 
0.17738 
0.110378 
0.0772836 
0.0838952 
0.131872 
0.218372 
0.336208 
0.474519 
0.619885 
0.757759 
0.874063 
0.956743 
0.997124 
0.990889 
0.938573 
0.84551 
0.721244 
0.578467 
0.431608 
0.295248 
0.182534 
0.103778 
0.0654066 
0.0693745 
0.113096 
0.189899 
0.28994 
0.401442 
0.512128 
0.610648 
0.68784 
0.737682 
0.757812 
0.749583 
0.71765 
0.66916 
0.612661 
0.556875 
0.509507 
0.476234 
0.460009 
0.460772 
0.475584 
0.499175 
0.52482 
0.545412 
0.554599 
0.547816 
0.523068 
0.481359 
0.426696 
0.365669 
0.306638 
0.258641 
0.230165 
0.227925 
0.255827 
0.314252 
0.399766 
0.505306 
0.620832 
0.734391 
0.833446 
0.906346 
0.943733 
0.939729 
0.892743 
0.805808 
0.686371 
0.545588 
0.397155 
0.255851 
0.135923 
0.0495181 
0.00534885 
0.00773124 
0.0561226 
0.145204 
0.265502 
0.404462 
0.54787 
0.681424 
0.7923 
0.870505 
0.90989 
0.908687 
0.869532 
0.79898 
0.706581 
0.603641 
0.501824 
0.411766 
0.341884 
0.297494 
0.280369 
0.28875 
0.31781 
0.360501 
0.408641 
0.454124 
0.490059 
0.511709 
0.517098 
0.507213 
0.485776 
0.458622 
0.43277 
0.415323 
0.412331 
0.427793 
0.462932 
0.515841 
0.581567 
0.652625 
0.719886 
0.773739 
0.80536 
0.807954 
0.777779 
0.714831 
0.623077 
0.51021 
0.386922 
0.265781 
0.159841 
0.0811407 
0.0392725 
0.0402011 
0.0854711 
0.171909 
0.291866 
0.433971 
0.58433 
0.728017 
0.850696 
0.940186 
0.987786 
0.989207 
0.945002 
0.860451 
0.74492 
0.61076 
0.4719 
0.34228 
0.234326 
0.157632 
0.11801 
0.116994 
0.151868 
0.216183 
0.300694 
0.394592 
0.486869 
0.567651 
0.629326 
0.667339 
0.680564 
0.671218 
0.644337 
0.606909 
0.566767 
0.531415 
0.506933 
0.497113 
0.502936 
0.52247 
0.551184 
0.582644 
0.6095 
0.624619 
0.622209 
0.598795 
0.553886 
0.490252 
0.413759 
0.332764 
0.257147 
0.197091 
0.161764 
0.158068 
0.18962 
0.256103 
0.353074 
0.472282 
0.60245 
0.730461 
0.8428 
0.927084 
0.973507 
0.976022 
0.933109 
0.848042 
0.728613 
0.586334 
0.435212 
0.290239 
0.16576 
0.0739183 
0.0233514 
0.018291 
0.0581643 
0.137742 
0.247808 
0.376262 
0.509534 
0.634119 
0.738069 
0.812258 
0.851283 
0.85389 
0.82291 
0.7647 
0.688198 
0.603697 
0.521517 
0.450725 
0.398081 
0.367323 
0.358877 
0.370023 
0.395467 
0.42825 
0.460858 
0.486371 
0.499509 
0.497426 
0.480137 
0.450534 
0.413978 
0.377524 
0.348886 
0.335268 
0.342243 
0.372808 
0.426768 
0.500534 
0.587369 
0.678079 
0.762056 
0.828558 
0.868065 
0.87355 
0.841484 
0.772458 
0.671322 
0.546821 
0.410738 
0.276669 
0.15853 
0.068999 
0.0180629 
0.0118442 
0.0518511 
0.134743 
0.252644 
0.393971 
0.544682 
0.689808 
0.815077 
0.908454 
0.961422 
0.969846 
0.934333 
0.860054 
0.756048 
0.634113 
0.507401 
0.388909 
0.290031 
0.219351 
0.181804 
0.178306 
0.205877 
0.258227 
0.326722 
0.401596 
0.473242 
0.533437 
0.576315 
0.599003 
0.601819 
0.588038 
0.563252 
0.534428 
0.508796 
0.492715 
0.490681 
0.504609 
0.533489 
0.573466 
0.618337 
0.660403 
0.691562 
0.704503 
0.69383 
0.656976 
0.594772 
0.511576 
0.414945 
0.314868 
0.222651 
0.149577 
0.10551 
0.0976214 
0.129382 
0.199977 
0.304207 
0.432913 
0.573874 
0.713096 
0.836331 
0.930658 
0.985947 
0.996018 
0.959366 
0.879368 
0.763935 
0.624653 
0.475517 
0.331391 
0.206392 
0.112369 
0.0576567 
0.0462525 
0.077492 
0.146265 
0.243729 
0.358431 
0.477695 
0.589095 
0.681863 
0.748028 
0.783187 
0.786816 
0.762086 
0.715244 
0.654632 
0.589487 
0.528683 
0.479577 
0.447102 
0.433227 
0.436845 
0.454084 
0.479014 
0.504617 
0.523916 
0.531079 
0.52237 
0.496786 
0.456321 
0.405789 
0.352236 
0.304018 
0.269649 
0.25658 
0.27007 
0.312304 
0.38187 
0.473698 
0.579465 
0.688435 
0.788646 
0.868303 
0.917202 
0.928026 
0.897332 
0.826115 
0.719858 
0.588067 
0.443318 
0.299927 
0.172401 
0.0738387 
0.014472 
0.000516418 
0.0334717 
0.109949 
0.222049 
0.358244 
0.504664 
0.646631 
0.770269 
0.863991 
0.919707 
0.933607 
0.90644 
0.843263 
0.752703 
0.645837 
0.534818 
0.431435 
0.345768 
0.285108 
0.253261 
0.250309 
0.272842 
0.314626 
0.367595 
0.423038 
0.472818 
0.510469 
0.532014 
0.53642 
0.525623 
0.504128 
0.478247 
0.455086 
0.441408 
0.442551 
0.461525 
0.498446 
0.550358 
0.611502 
0.673992 
0.728809 
0.767011 
0.780981 
0.765553 
0.71888 
0.642895 
0.54332 
0.429185 
0.311914 
0.204077 
0.117949 
0.0640525 
0.0498552 
0.0787924 
0.149733 
0.256963 
0.390706 
0.538111 
0.684621 
0.815548 
0.91768 
0.980735 
0.998493 
0.969464 
0.897031 
0.789045 
0.656915 
0.514314 
0.375651 
0.254483 
0.162056 
0.106147 
0.0903269 
0.113731 
0.171343 
0.254756 
0.353299 
0.455383 
0.549908 
0.627544 
0.68174 
0.709349 
0.710787 
0.689745 
0.652479 
0.606803 
0.560912 
0.522204 
0.496248 
0.486044 
0.491663 
0.510311 
0.536816 
0.564446 
0.58597 
0.594797 
0.586047 
0.557394 
0.509579 
0.446489 
0.374805 
0.303243 
0.24148 
0.198898 
0.183304 
0.199804 
0.249961 
0.331375 
0.437737 
0.559378 
0.684247 
0.79922 
0.891586 
0.950529 
0.968436 
0.941863 
0.872042 
0.764859 
0.630294 
0.481392 
0.332865 
0.199504 
0.0945624 
0.0283146 
0.00695273 
0.031942 
0.0999138 
0.203102 
0.330268 
0.468001 
0.602238 
0.719826 
0.809934 
0.865168 
0.882249 
0.862196 
0.810004 
0.733856 
0.644002 
0.55143 
0.466507 
0.397759 
0.350937 
0.328476 
0.329407 
0.349713 
0.383078 
0.421915 
0.458524 
0.486241 
0.500394 
0.498971 
0.482879 
0.45579 
0.423578 
0.393423 
0.372722 
0.367932 
0.38352 
0.421165 
0.479315 
0.553187 
0.635207 
0.715854 
0.784801 
0.832223 
0.850104 
0.833364 
0.780679 
0.694857 
0.582727 
0.454528 
0.322869 
0.201363 
0.103112 
0.0391908 
0.0173462 
0.0410394 
0.108969 
0.21513 
0.349406 
0.498638 
0.64804 
0.782805 
0.889714 
0.958556 
0.983212 
0.962261 
0.899052 
0.801242 
0.679852 
0.547968 
0.419233 
0.306321 
0.219571 
0.165926 
0.148315 
0.165522 
0.212553 
0.281439 
0.362363 
0.444965 
0.51965 
0.578742 
0.61734 
0.633774 
0.629616 
0.609256 
0.579107 
0.546565 
0.518852 
0.501919 
0.499544 
0.512753 
0.539651 
0.575671 
0.614219 
0.647634 
0.668321 
0.669917 
0.648323 
0.602459 
0.534643 
0.450508 
0.358481 
0.268863 
0.19261 
0.139987 
0.11923 
0.135422 
0.189693 
0.278885 
0.395718 
0.529456 
0.667008 
0.794333 
0.898001 
0.966713 
0.992611 
0.972213 
0.906862 
0.80264 
0.66973 
0.521331 
0.372215 
0.237123 
0.129165 
0.0584187 
0.030885 
0.0479158 
0.106177 
0.198141 
0.313042 
0.438178 
0.560391 
0.66756 
0.749913 
0.801025 
0.818377 
0.803425 
0.761193 
0.699447 
0.627566 
0.555266 
0.491341 
0.442576 
0.412977 
0.403402 
0.41163 
0.432855 
0.460523 
0.487399 
0.506705 
0.513184 
0.503938 
0.478917 
0.441003 
0.395667 
0.350237 
0.312878 
0.291415 
0.292157 
0.318881 
0.372115 
0.448831 
0.542595 
0.64417 
0.74252 
0.826081 
0.884163 
0.9083 
0.893385 
0.83844 
0.746914 
0.626473 
0.488272 
0.345809 
0.213476 
0.104973 
0.0317724 
0.00182057 
0.0186166 
0.0807916 
0.182234 
0.312749 
0.459175 
0.606836 
0.741142 
0.849173 
0.92105 
0.950944 
0.937603 
0.884356 
0.79859 
0.690782 
0.573202 
0.458459 
0.358055 
0.281122 
0.2335 
0.217243 
0.230604 
0.268497 
0.323341 
0.386191 
0.447984 
0.500752 
0.538629 
0.558541 
0.560484 
0.54737 
0.524466 
0.498504 
0.476597 
0.465112 
0.468638 
0.489222 
0.52595 
0.574962 
0.629886 
0.682651 
0.724572 
0.747565 
0.745338 
0.714393 
0.654697 
0.569935 
0.467286 
0.356738 
0.250021 
0.15927 
0.0955851 
0.0676572 
0.0806385 
0.135392 
0.228229 
0.351169 
0.492715 
0.63904 
0.77548 
0.888134 
0.965405 
0.999294 
0.986296 
0.927791 
0.829888 
0.702734 
0.559382 
0.414335 
0.281946 
0.174866 
0.102702 
0.0710574 
0.0810458 
0.129328 
0.208664 
0.308891 
0.418211 
0.524619 
0.617298 
0.687819 
0.730992 
0.745289 
0.732794 
0.698692 
0.650404 
0.59645 
0.545237 
0.503897 
0.477352 
0.467717 
0.474105 
0.492876 
0.518264 
0.543319 
0.561009 
0.565346 
0.552368 
0.520856 
0.472659 
0.412597 
0.347933 
0.287481 
0.240459 
0.215231 
0.218105 
0.252349 
0.317551 
0.409429 
0.520125 
0.638956 
0.753553 
0.851251 
0.920568 
0.952595 
0.942122 
0.888369 
0.795212 
0.67088 
0.527137 
0.378051 
0.238482 
0.12246 
0.0416441 
0.00404829 
0.0131668 
0.0676147 
0.161317 
0.28422 
0.423446 
0.564747 
0.694085 
0.79916 
0.870709 
0.903411 
0.896335 
0.852851 
0.780056 
0.68778 
0.587312 
0.490009 
0.405942 
0.342778 
0.304995 
0.29354 
0.305943 
0.336877 
0.379058 
0.424369 
0.465056 
0.494829 
0.50972 
0.5086 
0.493267 
0.468126 
0.439474 
0.414518 
0.400249 
0.402318 
0.424094 
0.466009 
0.525309 
0.596243 
0.670674 
0.739052 
0.791626 
0.819732 
0.817014 
0.780396 
0.710676 
0.61267 
0.494852 
0.368533 
0.24666 
0.142378 
0.0675183 
0.0311939 
0.0386763 
0.0906906 
0.183221 
0.307855 
0.452639 
0.603344 
0.744999 
0.863524 
0.947256 
0.988214 
0.98294 
0.932823 
0.843883 
0.726034 
0.591916 
0.455454 
0.330288 
0.228287 
0.158302 
0.125304 
0.13 
0.168961 
0.235226 
0.319306 
0.410447 
0.497985 
0.572638 
0.627561 
0.659043 
0.666773 
0.653656 
0.625201 
0.588589 
0.551554 
0.521211 
0.503014 
0.499968 
0.512208 
0.537001 
0.569156 
0.601811 
0.627467 
0.639139 
0.631467 
0.601634 
0.54995 
0.480035 
0.398537 
0.31444 
0.238012 
0.179536 
0.147984 
0.149786 
0.187871 
0.261106 
0.364203 
0.488146 
0.621066 
0.749502 
0.859885 
0.940078 
0.980786 
0.976675 
0.927055 
0.836038 
0.712159 
0.567487 
0.416328 
0.273679 
0.153594 
0.0676667 
0.023796 
0.0253761 
0.0710043 
0.154732 
0.266823 
0.394927 
0.525514 
0.645417 
0.743273 
0.810718 
0.84319 
0.840257 
0.80544 
0.745577 
0.669813 
0.588349 
0.511124 
0.446586 
0.400713 
0.376397 
0.37326 
0.387916 
0.414633 
0.446294 
0.475524 
0.495825 
0.50257 
0.493711 
0.470111 
0.435449 
0.395721 
0.358377 
0.331242 
0.321333 
0.333759 
0.370836 
0.431554 
0.511479 
0.603105 
0.69664 
0.781122 
0.845744 
0.881224 
0.881037 
0.842362 
0.766618 
0.659494 
0.530483 
0.391934 
0.257748 
0.141858 
0.0566599 
0.0115992 
0.012064 
0.0587268 
0.147415 
0.269528 
0.412957 
0.563397 
0.705912 
0.826556 
0.913874 
0.960105 
0.961957 
0.920858 
0.842677 
0.736943 
0.615666 
0.491919 
0.378327 
0.285673 
0.22176 
0.19068 
0.192539 
0.223688 
0.277389 
0.344841 
0.416405 
0.482892 
0.53672 
0.572821 
0.589168 
0.586874 
0.569851 
0.544095 
0.516697 
0.494707 
0.484029 
0.488485 
0.509176 
0.544249 
0.589073 
0.63684 
0.67949 
0.708847 
0.717824 
0.701522 
0.658079 
0.589147 
0.499926 
0.398726 
0.296108 
0.203695 
0.132795 
0.093 
0.0909464 
0.129377 
0.206642 
0.31671 
0.44969 
0.592828 
0.731858 
0.852555 
0.942316 
0.991582 
0.994925 
0.951683 
0.866054 
0.746655 
0.605567 
0.45701 
0.315777 
0.195624 
0.107791 
0.0598427 
0.0549286 
0.0915735 
0.163991 
0.262885 
0.376622 
0.492646 
0.598938 
0.685367 
0.744755 
0.773547 
0.772013 
0.743971 
0.696081 
0.636817 
0.575247 
0.519798 
0.477157 
0.45145 
0.4438 
0.45232 
0.472528 
0.498121 
0.521998 
0.537398 
0.538978 
0.523697 
0.491376 
0.44485 
0.389691 
0.333524 
0.285031 
0.252759 
0.2439 
0.263185 
0.312074 
0.388324 
0.486029 
0.596132 
0.707354 
0.807453 
0.884646 
0.929038 
0.933876 
0.896465 
0.818638 
0.706707 
0.570886 
0.424254 
0.281363 
0.156658 
0.0628851 
0.0096767 
0.0024789 
0.0419467 
0.123877 
0.239689 
0.37739 
0.522924 
0.661722 
0.780304 
0.867716 
0.916656 
0.924162 
0.891781 
0.825223 
0.733537 
0.62794 
0.520429 
0.422351 
0.343125 
0.289237 
0.263646 
0.265651 
0.291223 
0.333749 
0.385069 
0.436678 
0.480921 
0.51202 
0.52682 
0.52513 
0.509649 
0.485466 
0.45923 
0.438091 
0.428561 
0.435456 
0.46107 
0.504687 
0.562516 
0.628057 
0.692874 
0.747657 
0.78347 
0.792993 
0.771617 
0.718237 
0.635626 
0.530333 
0.412104 
0.292874 
0.185458 
0.102079 
0.0529151 
0.0448425 
0.0805311 
0.158005 
0.270736 
0.408257 
0.557246 
0.702948 
0.830776 
0.927906 
0.984681 
0.995664 
0.960215 
0.882518 
0.771082 
0.637747 
0.496338 
0.361114 
0.245202 
0.159191 
0.110056 
0.100522 
0.128937 
0.189659 
0.273893 
0.370864 
0.469181 
0.558214 
0.629319 
0.676763 
0.698241 
0.694938 
0.671136 
0.633436 
0.589706 
0.547899 
0.514901 
0.495569 
0.492073 
0.503646 
0.526752 
0.555658 
0.583335 
0.602544 
0.606984 
0.592323 
0.556976 
0.502519 
0.433669 
0.357828 
0.284231 
0.22281 
0.182903 
0.171984 
0.194575 
0.251476 
0.339444 
0.451353 
0.576837 
0.703368 
0.817612 
0.90695 
0.960945 
0.972601 
0.939257 
0.862991 
0.750494 
0.612411 
0.462226 
0.314813 
0.184822 
0.0850852 
0.0252275 
0.0106417 
0.0419459 
0.114982 
0.221351 
0.349416 
0.485655 
0.616191 
0.728334 
0.811933 
0.860408 
0.871325 
0.846475 
0.791449 
0.714788 
0.626804 
0.538252 
0.458996 
0.396854 
0.356751 
0.340283 
0.34573 
0.368512 
0.402003 
0.4386 
0.470884 
0.492729 
0.500201 
0.49212 
0.470226 
0.438918 
0.404595 
0.374703 
0.356605 
0.356432 
0.378075 
0.422455 
0.487179 
0.566643 
0.652573 
0.734958 
0.803255 
0.847721 
0.860707 
0.837748 
0.778296 
0.686005 
0.568512 
0.436727 
0.303707 
0.183236 
0.0882855 
0.0295188 
0.0140374 
0.0445074 
0.11878 
0.230058 
0.367585 
0.517795 
0.66578 
0.796912 
0.898423 
0.960779 
0.978671 
0.951523 
0.88346 
0.782745 
0.660763 
0.530672 
0.405892 
0.298604 
0.218442 
0.171526 
0.159945 
0.181727 
0.231307 
0.300398 
0.379158 
0.457496 
0.52635 
0.578773 
0.610699 
0.621291 
0.612852 
0.590306 
0.56034 
0.530327 
0.507173 
0.496259 
0.50061 
0.520412 
0.552946 
0.592939 
0.633302 
0.666147 
0.68395 
0.680707 
0.652926 
0.6003 
0.52599 
0.436444 
0.340765 
0.249708 
0.174412 
0.125019 
0.109365 
0.131892 
0.192939 
0.288502 
0.410504 
0.547563 
0.686171 
0.812157 
0.912258 
0.975621 
0.995057 
0.96789 
0.896311 
0.787179 
0.651293 
0.502222 
0.354823 
0.223622 
0.121243 
0.0570655 
0.0362698 
0.0593656 
0.122261 
0.216848 
0.332034 
0.45508 
0.573091 
0.67447 
0.750169 
0.794596 
0.806066 
0.786771 
0.742278 
0.680635 
0.611209 
0.543409 
0.485466 
0.443417 
0.420429 
0.416534 
0.4288 
0.451916 
0.479093 
0.503156 
0.51768 
0.518005 
0.502002 
0.470465 
0.427093 
0.378037 
0.331091 
0.29461 
0.276307 
0.282099 
0.31513 
0.37514 
0.458254 
0.557236 
0.662201 
0.761686 
0.843987 
0.89857 
0.917407 
0.896054 
0.834336 
0.736552 
0.611147 
0.469898 
0.326684 
0.195991 
0.0913132 
0.023646 
0.000243082 
0.0237852 
0.0920603 
0.198194 
0.331405 
0.478196 
0.623843 
0.754009 
0.856292 
0.921531 
0.944727 
0.925465 
0.867815 
0.779713 
0.671928 
0.556729 
0.446427 
0.351966 
0.281739 
0.240745 
0.23021 
0.247673 
0.287534 
0.341966 
0.402075 
0.459143 
0.50579 
0.536917 
0.550292 
0.54673 
0.52983 
0.505333 
0.480169 
0.461353 
0.454864 
0.464667 
0.492024 
0.535175 
0.589457 
0.647839 
0.701818 
0.742557 
0.762119 
0.754643 
0.717284 
0.650813 
0.559763 
0.452096 
0.33843 
0.230883 
0.141694 
0.0817688 
0.0593277 
0.078837 
0.140344 
0.239315 
0.367004 
0.511318 
0.658087 
0.792589 
0.901167 
0.972732 
1 
0.980293 
0.915828 
0.813461 
0.683897 
0.540489 
0.397748 
0.269739 
0.168564 
0.103093 
0.0780934 
0.0938466 
0.146294 
0.227674 
0.327568 
0.434221 
0.53596 
0.622553 
0.686331 
0.722947 
0.731693 
0.715345 
0.679574 
0.632005 
0.581071 
0.534799 
0.499706 
0.479932 
0.476745 
0.488453 
0.510749 
0.53743 
0.561381 
0.575709 
0.574846 
0.555481 
0.517193 
0.462678 
0.397545 
0.329692 
0.268331 
0.222795 
0.20126 
0.209574 
0.250324 
0.322285 
0.420331 
0.535832 
0.657504 
0.772623 
0.86846 
0.933765 
0.960129 
0.943053 
0.882579 
0.783426 
0.65457 
0.508342 
0.359121 
0.221784 
0.11008 
0.0351306 
0.0042152 
0.0199931 
0.0802472 
0.178176 
0.303199 
0.442172 
0.580879 
0.705606 
0.804631 
0.869445 
0.895571 
0.882898 
0.835498 
0.760955 
0.669319 
0.5718 
0.479383 
0.401532 
0.345135 
0.313825 
0.307737 
0.323734 
0.356038 
0.397193 
0.439212 
0.474751 
0.498164 
0.506278 
0.498811 
0.478356 
0.449955 
0.420316 
0.396768 
0.386125 
0.393586 
0.421845 
0.470525 
0.536025 
0.61182 
0.689164 
0.758144 
0.808933 
0.833091 
0.824755 
0.781551 
0.705101 
0.601061 
0.478661 
0.349784 
0.227696 
0.12557 
0.0549679 
0.0244694 
0.0386183 
0.0973064 
0.195683 
0.324606 
0.471586 
0.622117 
0.761252 
0.875224 
0.952941 
0.987175 
0.975305 
0.919547 
0.826626 
0.706952 
0.573396 
0.43981 
0.319476 
0.223658 
0.160435 
0.133933 
0.144046 
0.186667 
0.254379 
0.337513 
0.425431 
0.507873 
0.576194 
0.624341 
0.649448 
0.652004 
0.635559 
0.606037 
0.570755 
0.537279 
0.51228 
0.500542 
0.504265 
0.522737 
0.552445 
0.587585 
0.620922 
0.64487 
0.652658 
0.639413 
0.603013 
0.544591 
0.468606 
0.382468 
0.295739 
0.219017 
0.162622 
0.135265 
0.142851 
0.187589 
0.26751 
0.376494 
0.504787 
0.639976 
0.768319 
0.876256 
0.951956 
0.986686 
0.97586 
0.919627 
0.822925 
0.695001 
0.548428 
0.397751 
0.257906 
0.142597 
0.0628203 
0.0257059 
0.0338036 
0.0848959 
0.172351 
0.285967 
0.413203 
0.540638 
0.655497 
0.747049 
0.807719 
0.833791 
0.825632 
0.787417 
0.72641 
0.651898 
0.573925 
0.501994 
0.443892 
0.404791 
0.386738 
0.38857 
0.406282 
0.433759 
0.46379 
0.489202 
0.503975 
0.504174 
0.488568 
0.458863 
0.419504 
0.377071 
0.339354 
0.314223 
0.308447 
0.326616 
0.370328 
0.437746 
0.523596 
0.619634 
0.715513 
0.79998 
0.86223 
0.893277 
0.88715 
0.841772 
0.759397 
0.646546 
0.513426 
0.3729 
0.239117 
0.125959 
0.0454796 
0.00653556 
0.01375 
0.0669518 
0.161151 
0.287058 
0.432089 
0.581739 
0.721172 
0.836826 
0.917871 
0.957329 
0.952754 
0.90638 
0.824733 
0.717775 
0.597672 
0.477348 
0.369 
0.282755 
0.225618 
0.20083 
0.207713 
0.241989 
0.296529 
0.362427 
0.43024 
0.491245 
0.538547 
0.567895 
0.578104 
0.571055 
0.551254 
0.525046 
0.499576 
0.481655 
0.476677 
0.487752 
0.515155 
0.556191 
0.605486 
0.655673 
0.698387 
0.725447 
0.730052 
0.707849 
0.657713 
0.582135 
0.487145 
0.381773 
0.277102 
0.185013 
0.116771 
0.0816377 
0.0856663 
0.130839 
0.214663 
0.330288 
0.467127 
0.611945 
0.750265 
0.86795 
0.952776 
0.995799 
0.992372 
0.942678 
0.851724 
0.728791 
0.586402 
0.43894 
0.301061 
0.1861 
0.104652 
0.0634798 
0.0648873 
0.106609 
0.182224 
0.282035 
0.394297 
0.506635 
0.607493 
0.687419 
0.740047 
0.762667 
0.756322 
0.72543 
0.677008 
0.619596 
0.562031 
0.512239 
0.4762 
0.457215 
0.455566 
0.468616 
0.491317 
0.517054 
0.538709 
0.549797 
0.545516 
0.523556 
0.484574 
0.432238 
0.372844 
0.314548 
0.266299 
0.236613 
0.232357 
0.257689 
0.313311 
0.39614 
0.499447 
0.613475 
0.726453 
0.825921 
0.900174 
0.939686 
0.938312 
0.894134 
0.809832 
0.692527 
0.553104 
0.405093 
0.263219 
0.141798 
0.0531676 
0.00631587 
0.00589496 
0.0517126 
0.138772 
0.257851 
0.396549 
0.540684 
0.675864 
0.78906 
0.869991 
0.912166 
0.913468 
0.87622 
0.80674 
0.714443 
0.610622 
0.50705 
0.414586 
0.341944 
0.294787 
0.275233 
0.281827 
0.309966 
0.352716 
0.401889 
0.449249 
0.48767 
0.512104 
0.520229 
0.512688 
0.49291 
0.466523 
0.440452 
0.421825 
0.41684 
0.429745 
0.462083 
0.512298 
0.575773 
0.645303 
0.711952 
0.766184 
0.79913 
0.803827 
0.776271 
0.71613 
0.627021 
0.516306 
0.394408 
0.273721 
0.167243 
0.0870786 
0.0430044 
0.0412605 
0.0837256 
0.167577 
0.285488 
0.426346 
0.57641 
0.720792 
0.845069 
0.936861 
0.987179 
0.991393 
0.949708 
0.867089 
0.75266 
0.618635 
0.478924 
0.347576 
0.237232 
0.157785 
0.11539 
0.111929 
0.144991 
0.208354 
0.292891 
0.387791 
0.48192 
0.565173 
0.629628 
0.670384 
0.685971 
0.67831 
0.652229 
0.614614 
0.573322 
0.536 
0.508976 
0.496357 
0.499477 
0.51674 
0.543898 
0.574714 
0.601918 
0.618331 
0.618003 
0.597195 
0.555093 
0.494115 
0.419795 
0.340219 
0.265088 
0.204526 
0.167763 
0.161882 
0.190772 
0.254449 
0.348821 
0.46596 
0.594851 
0.722535 
0.835537 
0.921392 
0.970098 
0.975322 
0.935205 
0.852673 
0.7352 
0.594052 
0.443098 
0.297306 
0.171125 
0.076911 
0.0235974 
0.0157594 
0.0531718 
0.130913 
0.239995 
0.368443 
0.502686 
0.629098 
0.735502 
0.812467 
0.854241 
0.859228 
0.82996 
0.772581 
0.695925 
0.610304 
0.526178 
0.452858 
0.397418 
0.363947 
0.353211 
0.362775 
0.387543 
0.420641 
0.454514 
0.482085 
0.497818 
0.498541 
0.483918 
0.456509 
0.4214 
0.385465 
0.356353 
0.341328 
0.346139 
0.374052 
0.425205 
0.496359 
0.581104 
0.670508 
0.754125 
0.821258 
0.862309 
0.870058 
0.840691 
0.774464 
0.675877 
0.553354 
0.418434 
0.284566 
0.165639 
0.0744327 
0.0211417 
0.0121833 
0.0494081 
0.129823 
0.245862 
0.386175 
0.536847 
0.682913 
0.809983 
0.905799 
0.961537 
0.972717 
0.939601 
0.86706 
0.763918 
0.641861 
0.514059 
0.393645 
0.292253 
0.218781 
0.178513 
0.172706 
0.198668 
0.25031 
0.319087 
0.395196 
0.468879 
0.531655 
0.577338 
0.602702 
0.607732 
0.595426 
0.571191 
0.541926 
0.514915 
0.496691 
0.492017 
0.503137 
0.529394 
0.567259 
0.610794 
0.652467 
0.684226 
0.698683 
0.690253 
0.656091 
0.596688 
0.516054 
0.421425 
0.32254 
0.230556 
0.156727 
0.111012 
0.100786 
0.129814 
0.197622 
0.299361 
0.42618 
0.566097 
0.705247 
0.82939 
0.925494 
0.983205 
0.99604 
0.96215 
0.884567 
0.770897 
0.63251 
0.483285 
0.338099 
0.211202 
0.11468 
0.0571795 
0.0430468 
0.0719584 
0.139095 
0.235819 
0.350771 
0.47124 
0.584655 
0.679991 
0.748958 
0.786804 
0.792666 
0.769439 
0.723181 
0.66216 
0.595665 
0.53274 
0.481004 
0.445721 
0.429212 
0.430696 
0.446571 
0.471076 
0.497246 
0.518033 
0.52742 
0.521392 
0.498612 
0.460722 
0.412215 
0.359884 
0.311932 
0.276839 
0.262148 
0.27332 
0.312829 
0.379604 
0.468926 
0.572782 
0.680677 
0.780783 
0.861317 
0.911967 
0.925197 
0.897262 
0.828812 
0.724986 
0.594985 
0.45116 
0.307713 
0.179159 
0.078723 
0.016872 
0.000132281 
0.0303514 
0.104483 
0.21492 
0.350343 
0.496979 
0.640123 
0.765751 
0.862028 
0.920544 
0.93714 
0.912228 
0.850581 
0.760637 
0.653395 
0.541055 
0.435571 
0.347287 
0.28382 
0.249327 
0.24422 
0.265359 
0.306685 
0.360189 
0.417092 
0.469076 
0.509398 
0.533748 
0.540743 
0.531994 
0.51175 
0.486168 
0.462315 
0.447042 
0.445885 
0.462143 
0.49627 
0.54566 
0.60487 
0.666254 
0.720933 
0.759982 
0.775676 
0.762637 
0.718716 
0.645505 
0.548376 
0.436056 
0.31974 
0.211881 
0.124755 
0.0690099 
0.0523439 
0.0785014 
0.146698 
0.251565 
0.383618 
0.53022 
0.676914 
0.808987 
0.913086 
0.978682 
0.999238 
0.972913 
0.902754 
0.796326 
0.664844 
0.521899 
0.381945 
0.258699 
0.163667 
0.104951 
0.0864735 
0.107702 
0.163892 
0.246815 
0.34586 
0.449376 
0.546085 
0.626381 
0.683384 
0.713593 
0.717102 
0.697341 
0.660406 
0.614071 
0.566612 
0.525623 
0.496959 
0.483958 
0.487041 
0.503731 
0.529101 
0.556559 
0.578898 
0.589424 
0.583044 
0.557138 
0.512101 
0.451473 
0.381629 
0.311054 
0.249302 
0.205751 
0.188334 
0.202381 
0.249763 
0.328427 
0.432408 
0.552333 
0.676367 
0.791491 
0.884973 
0.945859 
0.966293 
0.942515 
0.875408 
0.770517 
0.637538 
0.489315 
0.340478 
0.205855 
0.0988568 
0.030016 
0.00584859 
0.0281703 
0.093946 
0.195684 
0.322327 
0.46053 
0.596171 
0.715921 
0.80868 
0.866721 
0.886414 
0.868454 
0.817572 
0.741788 
0.651306 
0.557194 
0.47001 
0.398562 
0.348941 
0.32393 
0.322879 
0.342019 
0.375181 
0.414801 
0.453083 
0.483152 
0.500044 
0.501403 
0.48779 
0.462566 
0.431371 
0.40126 
0.379623 
0.373034 
0.386185 
0.42106 
0.476453 
0.547926 
0.628206 
0.707986 
0.77705 
0.825559 
0.845359 
0.831132 
0.781238 
0.698138 
0.58832 
0.461733 
0.330785 
0.209002 
0.109518 
0.0435632 
0.0191385 
0.0400276 
0.10528 
0.209224 
0.342022 
0.490698 
0.640538 
0.776679 
0.885728 
0.95721 
0.984673 
0.966347 
0.905252 
0.808781 
0.687788 
0.555308 
0.42506 
0.309907 
0.220467 
0.164021 
0.143846 
0.159048 
0.204883 
0.273532 
0.355208 
0.439456 
0.516475 
0.578299 
0.619683 
0.638611 
0.636343 
0.617031 
0.586958 
0.553511 
0.524025 
0.504672 
0.499532 
0.509979 
0.534461 
0.568713 
0.606364 
0.639863 
0.661607 
0.665098 
0.646001 
0.602926 
0.537839 
0.456033 
0.365647 
0.276772 
0.200274 
0.146447 
0.12368 
0.137305 
0.188773 
0.275278 
0.389875 
0.522107 
0.659071 
0.786801 
0.891815 
0.962647 
0.991173 
0.973582 
0.910868 
0.808781 
0.677239 
0.529269 
0.37959 
0.243013 
0.132834 
0.0594075 
0.02907 
0.043524 
0.0997576 
0.190496 
0.305128 
0.430983 
0.554815 
0.6643 
0.749377 
0.80328 
0.82314 
0.810101 
0.768948 
0.707312 
0.634557 
0.560509 
0.49418 
0.442657 
0.41029 
0.398283 
0.404718 
0.425014 
0.452734 
0.480635 
0.501812 
0.510774 
0.504311 
0.482027 
0.446461 
0.402791 
