0.814724 
0.905792 
0.126987 
0.913376 
0.632359 
0.0975404 
0.278498 
0.546882 
0.957507 
0.964889 
0.157613 
0.970593 
0.957167 
0.485376 
0.80028 
0.141886 
0.421761 
0.915736 
0.792207 
0.959492 
0.655741 
0.0357117 
0.849129 
0.933993 
0.678735 
0.75774 
0.743132 
0.392227 
0.655478 
0.171187 
0.706046 
0.0318328 
0.276923 
0.0461714 
0.0971318 
0.823458 
0.694829 
0.317099 
0.950222 
0.0344461 
0.438744 
0.381558 
0.765517 
0.7952 
0.186873 
0.489764 
0.445586 
0.646313 
0.709365 
0.754687 
0.276025 
0.679703 
0.655098 
0.162612 
0.118998 
0.498364 
0.959744 
0.340386 
0.585268 
0.223812 
0.751267 
0.255095 
0.505957 
0.699077 
0.890903 
0.959291 
0.547216 
0.138624 
0.149294 
0.257508 
0.840717 
0.254282 
0.814285 
0.243525 
0.929264 
0.349984 
0.196595 
0.251084 
0.616045 
0.473289 
0.35166 
0.830829 
0.585264 
0.549724 
0.917194 
0.285839 
0.7572 
0.753729 
0.380446 
0.567822 
0.0758543 
0.0539501 
0.530798 
0.779167 
0.934011 
0.129906 
0.568824 
0.469391 
0.0119021 
0.337123 
0.162182 
0.794285 
0.311215 
0.528533 
0.165649 
0.601982 
0.262971 
0.654079 
0.689215 
0.748152 
0.450542 
0.0838214 
0.228977 
0.913337 
0.152378 
0.825817 
0.538342 
0.996135 
0.0781755 
0.442678 
0.106653 
0.961898 
0.00463422 
0.77491 
0.817303 
0.868695 
0.0844358 
0.399783 
0.25987 
0.800068 
0.431414 
0.910648 
0.181847 
0.263803 
0.145539 
0.136069 
0.869292 
0.579705 
0.54986 
0.144955 
0.853031 
0.622055 
0.350952 
0.51325 
0.401808 
0.0759667 
0.239916 
0.123319 
0.183908 
0.239953 
0.417267 
0.0496544 
0.902716 
0.944787 
0.490864 
0.489253 
0.337719 
0.900054 
0.369247 
0.111203 
0.780252 
0.389739 
0.241691 
0.403912 
0.0964545 
0.131973 
0.942051 
0.956135 
0.575209 
0.0597795 
0.23478 
0.353159 
0.821194 
0.0154034 
0.0430238 
0.16899 
0.649115 
0.731722 
0.647746 
0.450924 
0.547009 
0.296321 
0.744693 
0.188955 
0.686775 
0.183511 
0.368485 
0.625619 
0.780227 
0.0811258 
0.929386 
0.775713 
0.486792 
0.435859 
0.446784 
0.306349 
0.508509 
0.510772 
0.817628 
0.794831 
0.644318 
0.378609 
0.81158 
0.532826 
0.350727 
0.939002 
0.875943 
0.550156 
0.622475 
0.587045 
0.207742 
0.301246 
0.470923 
0.230488 
0.844309 
0.194764 
0.225922 
0.170708 
0.227664 
0.435699 
0.311102 
0.92338 
0.430207 
0.184816 
0.904881 
0.979748 
0.43887 
0.111119 
0.258065 
0.40872 
0.594896 
0.262212 
0.602843 
0.711216 
0.221747 
0.117418 
0.296676 
0.318778 
0.424167 
0.507858 
0.0855158 
0.262482 
0.801015 
0.0292203 
0.928854 
0.730331 
0.488609 
0.578525 
0.237284 
0.458849 
0.963089 
0.546806 
0.521136 
0.231594 
0.488898 
0.62406 
0.679136 
0.395515 
0.367437 
0.987982 
0.0377389 
0.885168 
0.913287 
0.796184 
0.0987123 
0.261871 
0.335357 
0.679728 
0.136553 
0.721227 
0.106762 
0.653757 
0.494174 
0.779052 
0.715037 
0.903721 
0.890923 
0.334163 
0.698746 
0.19781 
0.0305409 
0.744074 
0.500022 
0.479922 
0.904722 
0.609867 
0.617666 
0.859442 
0.805489 
0.576722 
0.182922 
0.239932 
0.886512 
0.0286742 
0.489901 
0.167927 
0.978681 
0.712694 
0.500472 
0.471088 
0.0596189 
0.681972 
0.0424311 
0.0714455 
0.52165 
0.09673 
0.818149 
0.817547 
0.72244 
0.149865 
0.659605 
0.518595 
0.972975 
0.648991 
0.800331 
0.453798 
0.432392 
0.825314 
0.0834698 
0.133171 
0.173389 
0.390938 
0.83138 
0.803364 
0.0604712 
0.399258 
0.526876 
0.416799 
0.65686 
0.627973 
0.291984 
0.431651 
0.0154871 
0.984064 
0.167168 
0.106216 
0.37241 
0.198118 
0.489688 
0.339493 
0.95163 
0.920332 
0.052677 
0.737858 
0.269119 
0.422836 
0.547871 
0.942737 
0.417744 
0.983052 
0.301455 
0.701099 
0.666339 
0.539126 
0.698106 
0.666528 
0.178132 
0.128014 
0.99908 
0.171121 
0.0326008 
0.5612 
0.881867 
0.669175 
0.190433 
0.368917 
0.460726 
0.981638 
0.156405 
0.855523 
0.644765 
0.376272 
0.190924 
0.428253 
0.482022 
0.120612 
0.589507 
0.226188 
0.384619 
0.582986 
0.251806 
0.290441 
0.617091 
0.265281 
0.824376 
0.982663 
0.730249 
0.343877 
0.584069 
0.107769 
0.906308 
0.879654 
0.817761 
0.260728 
0.594356 
0.0225126 
0.425259 
0.312719 
0.161485 
0.178766 
0.422886 
0.0942293 
0.598524 
0.470924 
0.695949 
0.699888 
0.638531 
0.0336038 
0.0688061 
0.3196 
0.530864 
0.654446 
0.407619 
0.819981 
0.718359 
0.968649 
0.531334 
0.325146 
0.105629 
0.610959 
0.778802 
0.423453 
0.0908233 
0.266471 
0.153657 
0.281005 
0.440085 
0.527143 
0.457424 
0.875372 
0.518052 
0.943623 
0.637709 
0.957694 
0.240707 
0.676122 
0.289065 
0.671808 
0.69514 
0.0679928 
0.25479 
0.22404 
0.667833 
0.844392 
0.344462 
0.78052 
0.675332 
0.00671531 
0.60217 
0.386771 
0.915991 
0.00115106 
0.462449 
0.424349 
0.460916 
0.77016 
0.322472 
0.784739 
0.471357 
0.0357627 
0.175874 
0.721758 
0.473486 
0.152721 
0.341125 
0.607389 
0.191745 
0.738427 
0.24285 
0.917424 
0.269062 
0.7655 
0.188662 
0.287498 
0.0911135 
0.576209 
0.683363 
0.546593 
0.425729 
0.644443 
0.647618 
0.679017 
0.635787 
0.945174 
0.208935 
0.709282 
0.236231 
0.119396 
0.607304 
0.450138 
0.458725 
0.661945 
0.770286 
0.350218 
0.66201 
0.416159 
0.841929 
0.832917 
0.256441 
0.613461 
0.582249 
0.540739 
0.869941 
0.264779 
0.318074 
0.119215 
0.939829 
0.645552 
0.479463 
0.639317 
0.544716 
0.647311 
0.543886 
0.721047 
0.522495 
0.993705 
0.218677 
0.105798 
0.109697 
0.0635914 
0.40458 
0.448373 
0.365816 
0.763505 
0.627896 
0.77198 
0.932854 
0.972741 
0.192028 
0.138874 
0.696266 
0.09382 
0.525404 
0.530344 
0.86114 
0.484853 
0.393456 
0.671431 
0.741258 
0.520052 
0.347713 
0.149997 
0.586092 
0.262145 
0.0444541 
0.754933 
0.242785 
0.442402 
0.687796 
0.359228 
0.73634 
0.394707 
0.683416 
0.704047 
0.442305 
0.0195776 
0.330858 
0.424309 
0.27027 
0.197054 
0.821721 
0.429921 
0.887771 
0.391183 
0.769114 
0.396792 
0.808514 
0.755077 
0.377396 
0.216019 
0.790407 
0.949304 
0.327565 
0.671264 
0.438645 
0.833501 
0.768854 
0.167254 
0.86198 
0.989872 
0.514423 
0.884281 
0.588026 
0.154752 
0.199863 
0.406955 
0.748706 
0.825584 
0.789963 
0.318524 
0.534064 
0.0899507 
0.111706 
0.136293 
0.678652 
0.495177 
0.18971 
0.495006 
0.147608 
0.0549741 
0.850713 
0.56056 
0.929609 
0.696667 
0.582791 
0.815397 
0.879014 
0.988912 
0.000522375 
0.865439 
0.612566 
0.98995 
0.52768 
0.479523 
0.801348 
0.227843 
0.498094 
0.900852 
0.574661 
0.845178 
0.73864 
0.585987 
0.246735 
0.666416 
0.0834828 
0.62596 
0.660945 
0.729752 
0.890752 
0.982303 
0.769029 
0.581446 
0.928313 
0.58009 
0.0169829 
0.12086 
0.862711 
0.484297 
0.844856 
0.209405 
0.552291 
0.629883 
0.031991 
0.614713 
0.362411 
0.0495326 
0.48957 
0.19251 
0.123084 
0.205494 
0.146515 
0.189072 
0.0426524 
0.635198 
0.281867 
0.538597 
0.695163 
0.499116 
0.535801 
0.445183 
0.123932 
0.490357 
0.852998 
0.873927 
0.270294 
0.208461 
0.56498 
0.640312 
0.417029 
0.205976 
0.947933 
0.0820712 
0.105709 
0.142041 
0.16646 
0.620959 
0.57371 
0.0520779 
0.931201 
0.728662 
0.737842 
0.0634045 
0.860441 
0.934405 
0.984398 
0.858939 
0.785559 
0.513377 
0.177602 
0.398589 
0.133931 
0.0308895 
0.939142 
0.301306 
0.295534 
0.332936 
0.467068 
0.648198 
0.0252282 
0.842207 
0.559033 
0.8541 
0.347879 
0.446027 
0.0542395 
0.177108 
0.662808 
0.330829 
0.898486 
0.118155 
0.988418 
0.539982 
0.706917 
0.999492 
0.287849 
0.414523 
0.46484 
0.763957 
0.818204 
0.100222 
0.178117 
0.359635 
0.0567047 
0.521886 
0.335849 
0.175669 
0.208947 
0.905154 
0.675391 
0.468468 
0.912132 
0.104012 
0.745546 
0.736267 
0.561861 
0.184194 
0.597211 
0.299937 
0.134123 
0.212602 
0.894942 
0.0714528 
0.242487 
0.0537544 
0.441722 
0.0132832 
0.897191 
0.196658 
0.0933705 
0.307367 
0.456058 
0.101669 
0.99539 
0.332093 
0.297347 
0.0620452 
0.298244 
0.0463513 
0.505428 
0.761426 
0.63107 
0.0898917 
0.0808624 
0.777241 
0.905135 
0.533772 
0.109154 
0.825809 
0.338098 
0.293973 
0.746313 
0.0103366 
0.0484473 
0.667916 
0.603468 
0.526102 
0.729709 
0.707253 
0.781377 
0.287977 
0.692532 
0.55667 
0.396521 
0.0615907 
0.780176 
0.337584 
0.607866 
0.741254 
0.104813 
0.127888 
0.54954 
0.485229 
0.890476 
0.79896 
0.734341 
0.0513319 
0.0728853 
0.0885275 
0.798351 
0.943008 
0.683716 
0.132083 
0.722725 
0.110353 
0.117493 
0.640718 
0.328814 
0.653812 
0.749131 
0.583186 
0.740032 
0.234827 
0.734958 
0.970599 
0.86693 
0.0862345 
0.366437 
0.369199 
0.685028 
0.597942 
0.789364 
0.367653 
0.206028 
0.0866665 
0.771934 
0.205675 
0.388272 
0.551779 
0.228953 
0.641941 
0.48448 
0.151846 
0.781932 
0.100606 
0.294066 
0.237373 
0.530872 
0.0914987 
0.405315 
0.104846 
0.112284 
0.784428 
0.29157 
0.603533 
0.964423 
0.432485 
0.694752 
0.758099 
0.432642 
0.655498 
0.109755 
0.93376 
0.187461 
0.266179 
0.79783 
0.487604 
0.768958 
0.396007 
0.272939 
0.0372346 
0.673295 
0.429564 
0.451739 
0.609857 
0.0594033 
0.315811 
0.772722 
0.696433 
0.125332 
0.130151 
0.0923523 
0.00782029 
0.423109 
0.655573 
0.722923 
0.531209 
0.108818 
0.631766 
0.1265 
0.134303 
0.0985941 
0.142027 
0.168251 
0.196249 
0.31748 
0.316429 
0.217563 
0.251042 
0.892922 
0.703223 
0.555738 
0.184434 
0.212031 
0.0773468 
0.9138 
0.706715 
0.557789 
0.313429 
0.166204 
0.622497 
0.987935 
0.170432 
0.257792 
0.396799 
0.0739948 
0.684096 
0.402388 
0.982835 
0.402184 
0.620672 
0.15437 
0.381345 
0.161134 
0.758112 
0.871111 
0.350777 
0.685536 
0.294149 
0.530629 
0.832423 
0.59749 
0.335311 
0.299225 
0.452593 
0.422646 
0.359606 
0.558319 
0.742545 
0.424335 
0.429356 
0.124873 
0.024434 
0.290185 
0.317521 
0.65369 
0.956936 
0.935731 
0.457886 
0.240478 
0.763898 
0.759327 
0.740648 
0.743688 
0.10592 
0.68156 
0.463261 
0.212163 
0.0985187 
0.823574 
0.17501 
0.16357 
0.665987 
0.894389 
0.516558 
0.702702 
0.15359 
0.953457 
0.540884 
0.679734 
0.036563 
0.809204 
0.748619 
0.120187 
0.525045 
0.325834 
0.546449 
0.398881 
0.415093 
0.180738 
0.255387 
0.0205358 
0.923676 
0.6537 
0.932614 
0.163512 
0.921097 
0.794658 
0.577394 
0.440036 
0.257614 
0.751946 
0.228669 
0.0641871 
0.76733 
0.671202 
0.715213 
0.642061 
0.419048 
0.390762 
0.81614 
0.317428 
0.81454 
0.789074 
0.852264 
0.505637 
0.635661 
0.950894 
0.443964 
0.0600188 
0.86675 
0.631189 
0.355074 
0.997003 
0.224171 
0.652451 
0.604991 
0.387245 
0.142187 
0.025135 
0.421112 
0.1841 
0.725775 
0.370363 
0.84156 
0.73423 
0.571026 
0.176855 
0.957384 
0.265322 
0.924581 
0.22377 
0.373564 
0.0875003 
0.640117 
0.180617 
0.0450511 
0.723173 
0.347438 
0.660617 
0.383869 
0.627347 
0.0216498 
0.91057 
0.800559 
0.745847 
0.813113 
0.383306 
0.617279 
0.575495 
0.530052 
0.27507 
0.248629 
0.451639 
0.227713 
0.80445 
0.986104 
0.029992 
0.535664 
0.0870772 
0.802091 
0.989145 
0.0669463 
0.939398 
0.0181775 
0.683839 
0.783736 
0.534138 
0.885359 
0.899005 
0.625938 
0.137869 
0.217802 
0.182141 
0.0418199 
0.106942 
0.616443 
0.939661 
0.354456 
0.410629 
0.984349 
0.945579 
0.676645 
0.988302 
0.766831 
0.336699 
0.662382 
0.244165 
0.295507 
0.680178 
0.527847 
0.411594 
0.602638 
0.75052 
0.583533 
0.551793 
0.583571 
0.51182 
0.0825927 
0.71957 
0.996156 
0.354534 
0.971259 
0.346449 
0.886544 
0.454695 
0.413427 
0.217732 
0.125655 
0.308915 
0.726104 
0.782872 
0.693788 
0.00980225 
0.843213 
0.922332 
0.770954 
0.0426599 
0.378186 
0.70434 
0.729513 
0.224277 
0.269055 
0.673031 
0.477492 
0.623716 
0.236445 
0.177124 
0.829643 
0.766922 
0.934478 
0.107889 
0.182228 
0.0990953 
0.489764 
0.193245 
0.895892 
0.0990896 
0.0441656 
0.557295 
0.772495 
0.31194 
0.178982 
0.338956 
0.210146 
0.510153 
0.906364 
0.628924 
0.101534 
0.390855 
0.0546166 
0.501283 
0.431721 
0.99756 
0.811603 
0.485652 
0.894448 
0.137547 
0.390005 
0.927356 
0.917494 
0.713574 
0.618337 
0.343288 
0.936027 
0.124774 
0.730585 
0.646477 
0.833152 
0.398282 
0.749822 
0.835221 
0.32246 
0.552262 
0.979129 
0.549309 
0.330424 
0.619472 
0.360637 
0.75651 
0.413901 
0.492345 
0.694743 
0.972734 
0.327755 
0.837803 
0.739072 
0.954174 
0.0319226 
0.356869 
0.662654 
0.281502 
0.230383 
0.711129 
0.624573 
0.590609 
0.660438 
0.0475547 
0.348785 
0.451341 
0.240905 
0.715045 
0.856182 
0.281508 
0.731051 
0.137763 
0.836723 
0.138602 
0.588209 
0.366157 
0.80676 
0.503781 
0.489594 
0.877049 
0.353142 
0.449444 
0.96353 
0.0422978 
0.972958 
0.189207 
0.66712 
0.58644 
0.675112 
0.361022 
0.620278 
0.811151 
0.0192575 
0.0838735 
0.974802 
0.65135 
0.231238 
0.403491 
0.122021 
0.268439 
0.257846 
0.331665 
0.152234 
0.348008 
0.121658 
0.884153 
0.0942784 
0.930041 
0.39902 
0.0474015 
0.342374 
0.735966 
0.794682 
0.544906 
0.686223 
0.893633 
0.0547918 
0.303661 
0.0461916 
0.195477 
0.720166 
0.721753 
0.877799 
0.582433 
0.0706843 
0.922745 
0.800372 
0.285947 
0.543663 
0.984776 
0.715678 
0.83897 
0.433261 
0.470625 
0.560713 
0.269092 
0.749018 
0.503888 
0.64681 
0.307746 
0.138725 
0.475573 
0.362459 
0.788113 
0.780296 
0.668512 
0.133504 
0.0215559 
0.559841 
0.300819 
0.93941 
0.980904 
0.28662 
0.80082 
0.896111 
0.597527 
0.884017 
0.943732 
0.549158 
0.728387 
0.576758 
0.0258575 
0.446531 
0.646302 
0.521203 
0.372313 
0.937135 
0.829533 
0.849085 
0.372534 
0.593185 
0.872553 
0.933502 
0.668464 
0.206776 
0.653851 
0.0720516 
0.406727 
0.666932 
0.933726 
0.81095 
0.484548 
0.756749 
0.417047 
0.971786 
0.987975 
0.864148 
0.388884 
0.454742 
0.246687 
0.784423 
0.882838 
0.913712 
0.558285 
0.598868 
0.148877 
0.899713 
0.450394 
0.205672 
0.899651 
0.762586 
0.882486 
0.28495 
0.673226 
0.66428 
0.122815 
0.407318 
0.275287 
0.71667 
0.283384 
0.896199 
0.826579 
0.390027 
0.497903 
0.694805 
0.834369 
0.60963 
0.574737 
0.326042 
0.456425 
0.713796 
0.884405 
0.720856 
0.0186128 
0.674776 
0.438509 
0.43782 
0.117037 
0.814682 
0.324855 
0.246228 
0.342713 
0.375692 
0.546554 
0.56192 
0.395822 
0.398131 
0.515367 
0.657531 
0.950915 
0.722349 
0.40008 
0.831871 
0.134338 
0.0604668 
0.0842471 
0.163898 
0.32422 
0.301727 
0.011681 
0.539905 
0.0953727 
0.146515 
0.631141 
0.85932 
0.974222 
0.570838 
0.99685 
0.553542 
0.515458 
0.330682 
0.430002 
0.491806 
0.0710371 
0.887739 
0.0646336 
0.436185 
0.82663 
0.394535 
0.613475 
0.818641 
0.886235 
0.931112 
0.190785 
0.258582 
0.897866 
0.593362 
0.50384 
0.61281 
0.819422 
0.531889 
0.202075 
0.453893 
0.427911 
0.966053 
0.620055 
0.69539 
0.720165 
0.346895 
0.51699 
0.556695 
0.156495 
0.562056 
0.694803 
0.426456 
0.83627 
0.731387 
0.360031 
0.454212 
0.38639 
0.775555 
0.734271 
0.430278 
0.693753 
0.945213 
0.784233 
0.705572 
0.109334 
0.389931 
0.590905 
0.45938 
0.05034 
0.228688 
0.834189 
0.0156447 
0.863711 
0.0780691 
0.669043 
0.500211 
0.217994 
0.571616 
0.122189 
0.671166 
0.599586 
0.0559762 
0.056343 
0.152501 
0.0196211 
0.435176 
0.832221 
0.61739 
0.520129 
0.863868 
0.0976979 
0.908052 
0.108017 
0.516997 
0.143156 
0.559371 
0.00457962 
0.766682 
0.848709 
0.916821 
0.986968 
0.505133 
0.271422 
0.100751 
0.507849 
0.585609 
0.762887 
0.0829626 
0.661596 
0.516979 
0.171048 
0.938558 
0.590483 
0.440635 
0.941919 
0.655914 
0.451946 
0.839697 
0.532624 
0.553887 
0.680066 
0.36719 
0.239291 
0.578923 
0.866887 
0.406777 
0.112615 
0.443846 
0.300184 
0.401387 
0.833364 
0.403629 
0.390176 
0.360449 
0.140255 
0.26013 
0.0868151 
0.429397 
0.257283 
0.297555 
0.424858 
0.119207 
0.495067 
0.706407 
0.243573 
0.78507 
0.0740896 
0.393883 
0.00339412 
0.220677 
0.00130057 
0.18918 
0.142484 
0.268076 
0.174892 
0.138649 
0.598886 
0.901058 
0.93938 
0.221184 
0.482671 
0.376011 
0.52378 
0.264873 
0.0683572 
0.436327 
0.173853 
0.0261071 
0.954678 
0.430597 
0.961559 
0.762414 
0.00734866 
0.680039 
0.705951 
0.645129 
0.55231 
0.218109 
0.772366 
0.228028 
0.370865 
0.890929 
0.856377 
0.402434 
0.318019 
0.608635 
0.910195 
0.909098 
0.591594 
0.332571 
0.853064 
0.442398 
0.904355 
0.0331794 
0.532426 
0.716497 
0.179302 
0.336533 
0.187713 
0.321927 
0.403857 
0.548566 
0.0487386 
0.552732 
0.274811 
0.241502 
0.243145 
0.154159 
0.956416 
0.935661 
0.818714 
0.728262 
0.175812 
0.360371 
0.18879 
0.0011984 
0.31642 
0.699617 
0.625255 
0.543062 
0.439037 
0.287427 
0.501659 
0.761546 
0.762408 
0.576056 
0.747663 
0.645535 
0.12322 
0.504398 
0.347261 
0.0921477 
0.147849 
0.19817 
0.67227 
0.431511 
0.694404 
0.256785 
0.00975865 
0.532283 
0.279392 
0.94623 
0.906443 
0.392685 
0.0248552 
0.671437 
0.837171 
0.9715 
0.0569329 
0.450324 
0.58247 
0.686638 
0.719433 
0.650041 
0.726915 
0.373848 
0.581582 
0.116119 
0.0576544 
0.979765 
0.284824 
0.594974 
0.962161 
0.185778 
0.19304 
0.341644 
0.932898 
0.390668 
0.273217 
0.151947 
0.397109 
0.374722 
0.131115 
0.435041 
0.0915132 
0.614627 
0.0109791 
0.57326 
0.78973 
0.235367 
0.44802 
0.569358 
0.0614014 
0.496289 
0.642315 
0.221266 
0.837056 
0.971075 
0.846373 
0.505999 
0.278876 
0.746617 
0.23693 
0.957345 
0.62026 
0.600262 
0.172605 
0.0903467 
0.255262 
0.858571 
0.911067 
0.699634 
0.725182 
0.229886 
0.576053 
0.810628 
0.403843 
0.988439 
0.0899988 
0.320941 
0.511409 
0.0606064 
0.725688 
0.556556 
0.52936 
0.829982 
0.858759 
0.789029 
0.317833 
0.452207 
0.752228 
0.109862 
0.109742 
0.269884 
0.524637 
0.972651 
0.710409 
0.31186 
0.291457 
0.850357 
0.911647 
0.639276 
0.25537 
0.0886658 
0.838256 
0.584719 
0.948109 
0.0610289 
0.584641 
0.285108 
0.827732 
0.190986 
0.44253 
0.393412 
0.826574 
0.676871 
0.207603 
0.318105 
0.133811 
0.671463 
0.570991 
0.169767 
0.147656 
0.47608 
0.908102 
0.552175 
0.0329399 
0.0538629 
0.805063 
0.451375 
0.382646 
0.789644 
0.364287 
0.53235 
0.711657 
0.871477 
0.32869 
0.650118 
0.974836 
0.0759674 
0.587019 
0.413886 
0.309136 
0.263834 
0.758766 
0.995216 
0.186571 
0.781145 
0.195798 
0.992359 
0.802262 
0.424227 
0.728864 
0.498354 
0.80899 
0.356509 
0.0732434 
0.590991 
0.910188 
0.193766 
0.432368 
0.74916 
0.0391845 
0.946325 
0.763673 
0.558821 
0.183843 
0.497949 
0.517846 
0.994243 
0.854852 
0.962404 
0.678941 
0.403501 
0.934979 
0.479485 
0.231792 
0.39629 
0.705077 
0.558559 
0.756631 
0.995481 
0.962431 
0.535067 
0.96387 
0.115626 
0.0514483 
0.304349 
0.580192 
0.530964 
0.901208 
0.54055 
0.431981 
0.542667 
0.712415 
0.0166747 
0.800921 
0.142509 
0.478474 
0.256835 
0.369092 
0.661765 
0.169609 
0.278784 
0.198222 
0.195072 
0.32684 
0.880338 
0.471102 
0.403969 
0.179231 
0.968925 
0.407456 
0.844487 
0.615325 
0.376611 
0.877182 
0.784852 
0.464954 
0.813977 
0.898444 
0.429239 
0.334329 
0.596647 
0.901991 
0.702066 
0.377455 
0.734956 
0.954103 
0.542813 
0.540106 
0.31111 
0.0712346 
0.18198 
0.0929889 
0.463489 
0.00933251 
0.915026 
0.642742 
0.00141906 
0.0303853 
0.20847 
0.454966 
0.127266 
0.00864769 
0.72708 
0.354116 
0.780446 
0.436657 
0.436555 
0.0492132 
0.0496319 
0.0911002 
0.594037 
0.241084 
0.841369 
0.857213 
0.963612 
0.4889 
0.22031 
0.226209 
0.536788 
0.76211 
0.347567 
0.461232 
0.639324 
0.917336 
0.161573 
0.715635 
0.577739 
0.433299 
0.884243 
0.393052 
0.178975 
0.633334 
0.624001 
0.327942 
0.802965 
0.999478 
0.980978 
0.127037 
0.23224 
0.0236325 
0.607433 
0.110809 
0.40746 
0.884077 
0.548133 
0.369003 
0.208346 
0.440943 
0.956196 
0.124026 
0.470763 
0.856896 
0.0433905 
0.691625 
0.978985 
0.283268 
0.13378 
0.68528 
0.909455 
0.610869 
0.899983 
0.193434 
0.754425 
0.346261 
0.418625 
0.15572 
0.819001 
0.624924 
0.73856 
0.805112 
0.0672227 
0.95079 
0.497577 
0.755146 
0.742405 
0.83113 
0.156502 
0.457309 
0.6181 
0.932183 
0.835088 
0.895424 
0.582519 
0.582747 
0.854926 
0.0348657 
0.88542 
0.407731 
0.036382 
0.746148 
0.154829 
0.143908 
0.605959 
0.254481 
0.324154 
0.401791 
0.406373 
0.386191 
0.609802 
0.166891 
0.188092 
0.0946289 
0.323186 
0.769597 
0.234118 
0.740365 
0.692818 
0.824078 
0.827978 
0.293368 
0.309369 
0.52303 
0.325299 
0.831843 
0.810295 
0.556998 
0.262964 
0.680566 
0.233653 
0.456425 
0.384567 
0.538601 
0.991704 
0.75522 
0.980455 
0.234783 
0.528559 
0.0514361 
0.756875 
0.60198 
0.857169 
0.988277 
0.929484 
0.409515 
0.000341462 
0.540878 
0.207731 
0.219284 
0.325806 
0.0959494 
0.747534 
0.748509 
0.543299 
0.338132 
0.832334 
0.552572 
0.957543 
0.892833 
0.356504 
0.546402 
0.346682 
0.622803 
0.796625 
0.745875 
0.125536 
0.822394 
0.0251505 
0.414429 
0.731407 
0.781374 
0.367286 
0.744868 
0.892267 
0.242603 
0.129597 
0.225068 
0.350014 
0.287085 
0.927488 
0.0513138 
0.592667 
0.162899 
0.838406 
0.167561 
0.502201 
0.999329 
0.355407 
0.0470777 
0.213661 
0.397839 
0.333668 
0.229603 
0.93612 
0.683189 
0.962114 
0.437973 
0.940337 
0.00583432 
0.610307 
0.801076 
0.232982 
0.932469 
0.763263 
0.82645 
0.573464 
0.792582 
0.329041 
0.223462 
0.312386 
0.584523 
0.829914 
0.290462 
0.402554 
0.862057 
0.61474 
0.991188 
0.203699 
0.827209 
0.675862 
0.248949 
0.475786 
0.399075 
0.599438 
0.800523 
0.105069 
0.821442 
0.841086 
0.354506 
0.430069 
0.572239 
0.700825 
0.74247 
0.757884 
0.389129 
0.429302 
0.956345 
0.572971 
0.849722 
0.276345 
0.622324 
0.588362 
0.963468 
0.0859027 
0.500499 
0.52159 
0.090166 
0.904666 
0.884389 
0.43899 
0.781723 
0.148465 
0.619816 
0.260624 
0.445656 
0.844 
0.196205 
0.303852 
0.483295 
0.337812 
0.798486 
0.987488 
0.159048 
0.23688 
0.702237 
0.375472 
0.973705 
0.972306 
0.643698 
0.860099 
0.401883 
0.631931 
0.985237 
0.559477 
0.933592 
0.720343 
0.484039 
0.639031 
0.887637 
0.198737 
0.395366 
0.992175 
0.402352 
0.658856 
0.901348 
0.995382 
0.653163 
0.108436 
0.036114 
0.618091 
0.567144 
0.961965 
0.746105 
0.662516 
0.523313 
0.259894 
0.961994 
0.540204 
0.0302702 
0.696314 
0.519716 
0.0590306 
0.890036 
0.330202 
0.229701 
0.113949 
0.310923 
0.228432 
0.651997 
0.0661601 
0.275431 
0.28182 
0.880066 
0.44433 
0.755914 
0.603296 
0.783266 
0.113931 
0.978564 
0.848597 
0.0506465 
0.466202 
0.325653 
0.630205 
0.230299 
0.579885 
0.603156 
0.599879 
0.448428 
0.0354235 
0.513815 
0.40773 
0.108046 
0.459876 
0.450883 
0.55114 
0.805404 
0.70085 
0.872236 
0.0521922 
0.219681 
0.459642 
0.958534 
0.790045 
0.451875 
0.333428 
0.0590953 
0.740905 
0.506795 
0.199925 
0.427194 
0.16869 
0.751695 
0.368351 
0.941818 
0.0171725 
0.829056 
0.626591 
0.538747 
0.650508 
0.72663 
0.0944886 
0.877574 
0.0143621 
0.294303 
0.179915 
0.926294 
0.0681804 
0.581093 
0.637151 
0.651269 
0.864622 
0.0559525 
0.816855 
0.528922 
0.694351 
0.212405 
0.54328 
0.70252 
0.956435 
0.444542 
0.0853978 
0.0573401 
0.62945 
0.796179 
0.691191 
0.345308 
0.946817 
0.52019 
0.953813 
0.0735956 
0.207032 
0.775028 
0.914188 
0.782551 
0.295534 
0.151846 
0.847911 
0.784855 
0.270832 
0.227811 
0.321023 
0.829562 
0.822182 
0.570683 
0.57183 
0.286018 
0.699134 
0.796258 
0.441589 
0.446216 
0.465662 
0.279039 
0.675375 
0.903665 
0.908526 
0.747197 
0.260512 
0.689638 
0.131831 
0.123501 
0.190903 
0.145732 
0.585044 
0.0733617 
0.822326 
0.722903 
0.925858 
0.492639 
0.654883 
0.890123 
0.538526 
0.282205 
0.975958 
0.0364255 
0.326245 
0.973014 
0.365033 
0.30915 
0.120912 
0.915766 
0.135478 
0.332118 
0.89748 
0.499649 
0.615288 
0.583133 
0.698254 
0.0293323 
0.527883 
0.0320728 
0.827142 
0.339986 
0.846711 
0.24607 
0.581491 
0.937677 
0.0477873 
0.0539777 
0.020618 
0.681479 
0.598629 
0.11403 
0.796245 
0.617851 
0.0702135 
0.069279 
0.136007 
0.788891 
0.0923985 
0.237869 
0.243648 
0.104822 
0.858353 
0.6982 
0.733742 
0.650531 
0.516271 
0.326388 
0.661776 
0.117565 
0.147817 
0.0197647 
0.964292 
0.970373 
0.123861 
0.46741 
0.656694 
0.290186 
0.754537 
0.558118 
0.427793 
0.267194 
0.753736 
0.898376 
0.728444 
0.40683 
0.938316 
0.255427 
0.533163 
0.954755 
0.267748 
0.250085 
0.927673 
0.0685823 
0.2994 
0.591584 
0.203299 
0.635883 
0.79837 
0.501701 
0.650812 
0.795955 
0.233374 
0.600839 
0.112462 
0.515766 
0.837841 
0.92079 
0.498228 
0.277611 
0.65252 
0.917299 
0.509839 
0.974191 
0.197279 
0.111185 
0.297354 
0.396419 
0.420756 
0.311475 
0.693843 
0.0918718 
0.402089 
0.295181 
0.306497 
0.105561 
0.593828 
0.282728 
0.155222 
0.000658668 
0.283595 
0.550811 
0.870902 
0.0422534 
0.904722 
0.130974 
0.833729 
0.800468 
0.91788 
0.137304 
0.504732 
0.404958 
0.173572 
0.575184 
0.606218 
0.214446 
0.519932 
0.989186 
0.489915 
0.694873 
0.411422 
0.0347767 
0.292832 
0.801442 
0.346502 
0.0833159 
0.511106 
0.366833 
0.73948 
0.52474 
0.804521 
0.816911 
0.189471 
0.123693 
0.820996 
0.637898 
0.0161198 
0.895955 
0.515375 
0.544522 
0.606442 
0.760436 
0.855347 
0.382868 
0.0846492 
0.733873 
0.331989 
0.83975 
0.371723 
0.828215 
0.176519 
0.12952 
0.879884 
0.0440791 
0.68672 
0.733773 
0.437172 
0.379839 
0.979657 
0.398993 
0.440187 
0.156808 
0.326034 
0.314062 
0.894501 
0.247024 
0.310679 
0.408869 
0.708011 
0.143638 
0.871322 
0.0831559 
0.461738 
0.030389 
0.753201 
0.700043 
0.214512 
0.679905 
0.557293 
0.850679 
0.558565 
0.901774 
0.419518 
0.358128 
0.488988 
0.255962 
0.929169 
0.466757 
0.254008 
0.431218 
0.70253 
0.40233 
0.18184 
0.856251 
0.584201 
0.373579 
0.221695 
0.218994 
0.522232 
0.433423 
0.741304 
0.0704496 
0.847333 
0.67988 
0.136652 
0.858402 
0.199834 
0.60734 
0.543045 
0.162325 
0.00565307 
0.771485 
0.764788 
0.421069 
0.0568132 
0.585747 
0.174155 
0.728611 
0.534291 
0.253064 
0.917057 
0.758195 
0.887031 
0.0687982 
0.183528 
0.737073 
0.696715 
0.776993 
0.501903 
0.425497 
0.611237 
0.855772 
0.670797 
0.523592 
0.298815 
0.703969 
0.381611 
0.567685 
0.887861 
0.842949 
0.898799 
0.939003 
0.815435 
0.00135783 
0.0030907 
0.0874688 
0.260727 
0.0227987 
0.424085 
0.341065 
0.541354 
0.926169 
0.298499 
0.338085 
0.85948 
0.340478 
0.13812 
0.507799 
0.856656 
0.384314 
0.695691 
0.627904 
0.450388 
0.473618 
0.949706 
0.0834976 
0.279829 
0.447007 
0.587571 
0.877634 
0.469101 
0.437418 
0.746185 
0.46791 
0.860827 
0.466512 
0.498104 
0.487431 
0.229469 
0.0855522 
0.0673833 
0.888391 
0.233168 
0.861596 
0.711735 
0.872813 
0.938002 
0.139689 
0.3939 
0.980563 
0.644794 
0.89641 
0.48223 
0.0140931 
0.62288 
0.231095 
0.527434 
0.724992 
0.607416 
0.588366 
0.433435 
0.244173 
0.42896 
0.0101775 
0.608821 
0.957975 
0.0954465 
0.0355906 
0.886235 
0.246941 
0.00891506 
0.81492 
0.140499 
0.879866 
0.0953768 
0.35256 
0.593421 
0.585182 
0.667682 
0.648027 
0.433369 
0.139759 
0.75193 
0.241787 
0.650459 
0.857374 
0.0843705 
0.972089 
0.0314599 
0.835405 
0.835713 
0.0498575 
0.545886 
0.94317 
0.321473 
0.806467 
0.601399 
0.78962 
0.799185 
0.0495648 
0.283199 
0.653457 
0.489655 
0.972852 
0.74849 
0.567841 
0.298964 
0.25611 
0.886564 
0.446801 
0.815987 
0.0983373 
0.859593 
0.027629 
0.899156 
0.899936 
0.524106 
0.1202 
0.177794 
0.706108 
0.83136 
0.0348338 
0.757839 
0.957112 
0.342871 
0.638244 
0.343006 
0.216471 
0.786201 
0.72309 
0.278839 
0.582431 
0.421006 
0.0920687 
0.0240273 
0.491146 
0.278267 
0.339757 
0.28735 
0.170903 
0.399263 
0.69765 
0.203676 
0.666326 
0.443066 
0.433295 
0.175239 
0.193202 
0.616421 
0.269011 
0.559678 
0.944784 
0.714472 
0.67922 
0.959381 
0.775334 
0.607727 
0.948002 
0.0596416 
0.268712 
0.98668 
0.772207 
0.475354 
0.6809 
0.416935 
0.380149 
0.21327 
0.382938 
0.0296678 
0.472321 
0.333373 
0.975845 
0.555444 
0.846304 
0.408063 
0.462018 
0.826307 
0.991203 
0.523948 
0.925437 
0.739022 
0.56743 
0.968778 
0.824499 
0.959609 
0.646346 
0.379573 
0.476575 
0.91189 
0.0148539 
0.156694 
0.471568 
0.542992 
0.059691 
0.65803 
0.889635 
0.109633 
0.437773 
0.28023 
0.985246 
0.608759 
0.253749 
0.132615 
0.545005 
0.827804 
0.837006 
0.833349 
0.203715 
0.544418 
0.874943 
0.121 
0.856351 
0.899776 
0.217865 
0.0769791 
0.474215 
0.835027 
0.469394 
0.41377 
0.502746 
0.12544 
0.132285 
0.870475 
0.60295 
0.265302 
0.864803 
0.0581095 
0.457754 
0.72221 
0.338999 
0.40122 
0.52698 
0.894236 
0.778361 
0.0693676 
0.278785 
0.37937 
0.864673 
0.41996 
0.239877 
0.597655 
0.479404 
0.898548 
0.934709 
0.817887 
0.708909 
0.743221 
0.89971 
0.0652398 
0.335911 
0.00433507 
0.828096 
0.507435 
0.366162 
0.22664 
0.534832 
0.289485 
0.0683709 
0.0849707 
0.0683395 
0.409816 
0.123381 
0.443017 
0.89894 
0.353639 
0.120178 
0.569111 
0.875033 
0.348575 
0.041921 
0.14234 
0.0765928 
0.740527 
0.456525 
0.668249 
0.699246 
0.571357 
0.628693 
0.877764 
0.662352 
0.875414 
0.467517 
0.141336 
0.0681345 
0.714242 
0.307986 
0.671164 
0.652421 
0.531049 
0.715107 
0.504811 
0.487999 
0.497838 
0.935976 
0.389282 
0.117145 
0.240424 
0.684908 
0.839254 
0.970145 
0.21517 
0.760343 
0.584103 
0.402952 
0.51004 
0.495644 
0.651368 
0.743706 
0.301953 
0.0896119 
0.825965 
0.389587 
0.775305 
0.179369 
0.109361 
0.905158 
0.876351 
0.999793 
0.864255 
0.0368775 
0.544682 
0.997616 
0.511008 
0.873512 
0.0702215 
0.987539 
0.922713 
0.564261 
0.431462 
0.337845 
0.720723 
0.0136556 
0.37406 
0.922685 
0.54648 
0.473887 
0.496537 
0.308971 
0.950838 
0.981993 
0.513563 
0.99259 
0.455844 
0.426041 
0.213215 
0.193249 
0.832754 
0.726637 
0.529746 
0.829081 
0.511874 
0.551962 
0.213285 
0.587821 
0.142763 
0.0522235 
0.683308 
0.608559 
0.219656 
0.40628 
0.629908 
0.555308 
0.127579 
0.169198 
0.000999418 
0.418162 
0.488486 
0.159869 
0.666839 
0.0179204 
0.119675 
0.952125 
0.975854 
0.0309145 
0.493882 
0.862722 
0.242876 
0.83427 
0.813591 
0.628973 
0.0022382 
0.379724 
0.904406 
0.680352 
0.378823 
0.631955 
0.24327 
0.571413 
0.981729 
0.849682 
0.283444 
0.682458 
0.358125 
0.986927 
0.0839863 
0.250306 
0.811347 
0.0844231 
0.531254 
0.800623 
0.738823 
0.141663 
0.437894 
0.35038 
0.478497 
0.587403 
0.145806 
0.905331 
0.640194 
0.16294 
0.565911 
0.931616 
0.783102 
0.685687 
0.466219 
0.260318 
0.569268 
0.248771 
0.319302 
0.910802 
0.88522 
0.794589 
0.92581 
0.17884 
0.517541 
0.627005 
0.913182 
0.663968 
0.389193 
0.740008 
0.817635 
0.600345 
0.0849971 
0.922358 
0.0535978 
0.527025 
0.118853 
0.380143 
0.812833 
0.244096 
0.884423 
0.712647 
0.378148 
0.24892 
0.252854 
0.767244 
0.0498619 
0.685289 
0.620278 
0.746685 
0.977256 
0.383914 
0.260206 
0.87747 
0.806096 
0.461121 
0.0909617 
0.564269 
0.187383 
0.53169 
0.355033 
0.314784 
0.726741 
0.515773 
0.790645 
0.204493 
0.678106 
0.0524855 
0.801172 
0.678569 
0.946009 
0.0915581 
0.908438 
0.509953 
0.614904 
0.316071 
0.0774875 
0.850614 
0.144527 
0.370486 
0.622391 
0.997552 
0.517344 
0.990511 
0.226534 
0.398005 
0.696569 
0.0646408 
0.747662 
0.4204 
0.811317 
0.379605 
0.319068 
0.986051 
0.718181 
0.413183 
0.0986302 
0.734559 
0.637306 
0.0738419 
0.120508 
0.981596 
0.496799 
0.0224137 
0.0538315 
0.140874 
0.893474 
0.46582 
0.560857 
0.494456 
0.0677855 
0.897647 
0.288565 
0.269047 
0.594194 
0.475879 
0.368311 
0.655611 
0.9382 
0.620425 
0.28284 
0.205181 
0.439134 
0.0272502 
0.876184 
0.610092 
0.203592 
0.519917 
0.0538243 
0.862187 
0.442935 
0.548009 
0.566861 
0.680395 
0.371379 
0.0782287 
0.456351 
0.0478438 
0.738257 
0.0380015 
0.954244 
0.742372 
0.93745 
0.513364 
0.240905 
0.259965 
0.758974 
0.993343 
0.356706 
0.752858 
0.110048 
0.597045 
0.430595 
0.730718 
0.261176 
0.0948077 
0.450963 
0.640075 
0.132039 
0.452822 
0.6522 
0.826998 
0.308077 
0.402364 
0.884231 
0.70058 
0.241872 
0.759832 
0.290926 
0.277439 
0.0061078 
0.374711 
0.436933 
0.304298 
0.29086 
0.242516 
0.936684 
0.86019 
0.397228 
0.479419 
0.564996 
0.489619 
0.269812 
0.98974 
0.183676 
0.861657 
0.0326326 
0.331958 
0.748747 
0.644366 
0.169238 
0.952205 
0.54327 
0.251413 
0.578572 
0.915477 
0.895597 
0.482507 
0.44274 
0.311755 
0.0553138 
0.753792 
0.131947 
0.355922 
0.395871 
0.885521 
0.0212395 
0.844081 
0.288071 
0.250343 
0.48838 
0.729036 
0.202616 
0.216276 
0.976335 
0.593236 
0.304404 
0.967703 
0.89597 
0.190025 
0.00179932 
0.711764 
0.867727 
0.118308 
0.039023 
0.598195 
0.604314 
0.516432 
0.0075074 
0.688933 
0.94602 
0.873536 
0.113276 
0.354569 
0.241937 
0.560333 
0.612727 
0.300809 
0.798142 
0.795642 
0.781092 
0.351098 
0.0542974 
0.708705 
0.992928 
0.162476 
0.113566 
0.912875 
0.481657 
0.851806 
0.809914 
0.18676 
0.2472 
0.0541888 
0.608961 
0.777232 
0.511064 
0.0277501 
0.990385 
0.50094 
0.331997 
0.173883 
0.625636 
0.575135 
0.750985 
0.153519 
0.356787 
0.143951 
0.850608 
0.33787 
0.275196 
0.00601097 
0.801912 
0.497408 
0.537843 
0.870913 
0.722844 
0.668086 
0.178828 
0.550495 
0.959875 
0.596022 
0.808571 
0.984532 
0.885924 
0.213837 
0.0346301 
0.451124 
0.0137946 
0.473711 
0.951197 
0.248952 
0.386423 
0.431433 
0.830886 
0.824647 
0.452999 
0.38056 
0.925869 
0.740844 
0.737633 
0.946916 
0.5101 
0.791879 
0.452174 
0.849199 
0.390431 
0.738377 
0.976439 
0.523299 
0.429915 
0.207158 
0.323401 
0.11087 
0.37521 
0.329904 
0.342105 
0.817119 
0.531685 
0.521122 
0.77431 
0.120263 
0.62545 
0.346649 
0.334619 
0.574617 
0.863938 
0.198563 
0.672451 
0.901831 
0.199157 
0.298284 
0.49652 
0.889904 
0.501415 
0.276995 
0.533958 
0.57425 
0.412804 
0.0147637 
0.702765 
0.506747 
0.381266 
0.0649315 
0.35858 
0.234251 
0.203504 
0.81378 
0.393435 
0.0535752 
0.375052 
0.774994 
0.165298 
0.912219 
0.319206 
0.32978 
0.204236 
0.767215 
0.0699731 
0.950034 
0.15821 
0.286446 
0.687129 
0.14115 
0.512087 
0.721327 
0.928845 
0.732104 
0.749848 
0.40732 
0.239492 
0.52085 
0.219077 
0.842388 
0.662933 
0.816235 
0.793878 
0.469105 
0.309525 
0.687579 
0.986852 
0.769934 
0.829581 
0.706085 
0.595336 
0.752874 
0.496722 
0.865133 
0.0680277 
0.968546 
0.0987563 
0.546977 
0.40297 
0.10704 
0.724166 
0.613682 
0.782968 
0.566621 
0.811319 
0.576776 
0.944029 
0.871452 
0.507602 
0.788823 
0.473031 
0.828802 
0.322482 
0.976147 
0.278211 
0.0728308 
0.751224 
0.831189 
0.922338 
0.327024 
0.804069 
0.53825 
0.463295 
0.82075 
0.951907 
0.0762729 
0.708671 
0.234926 
0.398896 
0.268124 
0.832513 
0.995374 
0.649751 
0.703953 
0.932303 
0.687653 
0.568354 
0.380848 
0.634579 
0.363229 
0.407619 
0.3687 
0.468399 
0.503414 
0.910536 
0.206431 
0.338604 
0.574126 
0.486932 
0.262219 
0.579593 
0.878328 
0.0609502 
0.440876 
0.084258 
0.563238 
0.539311 
0.768058 
0.23309 
0.587362 
0.458974 
0.860982 
0.660836 
0.353879 
0.347186 
0.253718 
0.952528 
0.298201 
0.158406 
0.361297 
0.741629 
0.7059 
0.700892 
0.00622579 
0.374346 
0.901496 
0.318345 
0.597083 
0.297795 
0.125014 
0.388356 
0.817688 
0.981176 
0.86199 
0.0838209 
0.337712 
0.236129 
0.317805 
0.984448 
0.548251 
0.749251 
0.841852 
0.16689 
0.903098 
0.105124 
0.745093 
0.729372 
0.71747 
0.133432 
0.445789 
0.508787 
0.53049 
0.859717 
0.677725 
0.805838 
0.531243 
0.955896 
0.0666769 
0.541518 
0.28166 
0.4809 
0.684864 
0.208258 
0.608161 
0.326176 
0.880847 
0.133395 
0.102408 
0.959117 
0.152902 
0.152538 
0.155553 
0.0895694 
0.454425 
0.668896 
0.831302 
0.790235 
0.712711 
0.472598 
0.708588 
0.958059 
0.505776 
0.305053 
0.789811 
0.236387 
0.234303 
0.464699 
0.619387 
0.615329 
0.122624 
0.123794 
0.284459 
0.735733 
0.411308 
0.828982 
0.935114 
0.399067 
0.0522114 
0.571186 
0.74767 
0.320244 
0.492934 
0.221653 
0.939274 
0.482305 
0.539996 
0.221057 
0.095945 
0.0601654 
0.819509 
0.771478 
0.195696 
0.895118 
0.6843 
0.656846 
0.990381 
0.0336918 
0.424253 
0.489984 
0.583504 
0.0832697 
0.660155 
0.0523052 
0.556831 
0.712025 
0.487911 
0.617601 
0.213778 
0.645659 
0.380642 
0.103713 
0.377512 
0.262861 
0.241286 
0.622924 
0.522928 
0.413238 
0.217792 
0.858554 
0.861008 
0.283939 
0.615393 
0.77949 
0.954847 
0.919603 
0.384816 
0.162643 
0.796751 
0.113817 
0.158824 
0.355828 
0.847759 
0.582781 
0.586178 
0.925838 
0.575078 
0.00997739 
0.809377 
0.608808 
0.479914 
0.26844 
0.258096 
0.48101 
0.227341 
0.0486023 
0.169242 
0.258446 
0.19791 
0.605693 
0.823704 
0.810615 
0.802237 
0.708113 
0.859378 
0.781085 
0.203797 
0.993343 
0.0936245 
0.650619 
0.215177 
0.243873 
0.339688 
0.197862 
0.506833 
0.950758 
0.394607 
0.584465 
0.606537 
0.714643 
0.401536 
0.858691 
0.920485 
0.750839 
0.285592 
0.796816 
0.142766 
0.50455 
0.610688 
0.703797 
0.38334 
0.728683 
0.887285 
0.0558483 
0.138216 
0.863065 
0.421746 
0.411314 
0.959141 
0.750245 
0.980997 
0.233516 
0.0962268 
0.384582 
0.500273 
0.570256 
0.976632 
0.492855 
0.400883 
0.99499 
0.260998 
0.665325 
0.964257 
0.671151 
0.299175 
0.531127 
0.00146318 
0.883789 
0.404384 
0.301206 
0.950582 
0.460648 
0.287648 
0.0846266 
0.582181 
0.153069 
0.0730943 
0.580565 
0.287015 
0.36192 
0.724825 
0.858312 
0.347916 
0.961746 
0.953569 
0.206037 
0.768245 
0.615532 
0.918922 
0.602537 
0.702138 
0.743675 
0.385102 
0.251504 
0.0367597 
0.472123 
0.645072 
0.27897 
0.517861 
0.245667 
0.297508 
0.650474 
0.891393 
0.861106 
0.209915 
0.399094 
0.887883 
0.256528 
0.966802 
0.619157 
0.165346 
0.826199 
0.655693 
0.546453 
0.251329 
0.0401564 
0.233375 
0.361113 
0.633455 
0.986098 
0.207157 
0.757084 
0.886328 
0.47223 
0.158914 
0.810921 
0.476508 
0.116288 
0.875721 
0.635186 
0.0972813 
0.908439 
0.035016 
0.0397497 
0.988568 
0.686182 
0.376689 
0.504324 
0.763496 
0.0488748 
0.725928 
0.701328 
0.458891 
0.582295 
0.33909 
0.170625 
0.399193 
0.919777 
0.226045 
0.361007 
0.324562 
0.0835821 
0.512666 
0.832865 
0.904613 
0.723596 
0.382996 
0.298017 
0.691712 
0.880457 
0.924548 
0.0812528 
0.482673 
0.128265 
0.252911 
0.883962 
0.196277 
0.121354 
0.543695 
0.314621 
0.382041 
0.791539 
0.839179 
0.680236 
0.416922 
0.64289 
0.214081 
0.617271 
0.675191 
0.601023 
0.34631 
0.364401 
0.171481 
0.795362 
0.492667 
0.354623 
0.775061 
0.236805 
0.844833 
0.816527 
0.846228 
0.370187 
0.38323 
0.861335 
0.463909 
0.570548 
0.695307 
0.960917 
0.546313 
0.636577 
0.570892 
0.927112 
0.863766 
0.169839 
0.178699 
0.243504 
0.751779 
0.199134 
0.982941 
0.709639 
0.175436 
0.858297 
0.909411 
0.961663 
0.5706 
0.562879 
0.176661 
0.513679 
0.548472 
0.165277 
0.493893 
0.535117 
0.198807 
0.623169 
0.0263154 
0.318791 
0.533 
0.326774 
0.60219 
0.361933 
0.134921 
0.913814 
0.640559 
0.658774 
0.67533 
0.744558 
0.842178 
0.516657 
0.151869 
0.380664 
0.821019 
0.171364 
0.329975 
0.966472 
0.806293 
0.222188 
0.999773 
0.0637387 
0.425483 
0.404338 
0.400293 
0.111923 
0.424311 
0.613546 
0.988061 
0.219901 
0.354081 
0.266242 
0.291498 
0.18839 
0.0228596 
0.449404 
0.24364 
0.868727 
0.528611 
0.914135 
0.97393 
0.585426 
0.118975 
0.926533 
0.593561 
0.883615 
0.424476 
0.607257 
0.0707636 
0.924772 
0.642079 
0.1045 
0.700225 
0.395804 
0.0849048 
0.214479 
0.248799 
0.226653 
0.703004 
0.754153 
0.547287 
0.553483 
0.630573 
0.985457 
0.634278 
0.600456 
0.909187 
0.570837 
0.33542 
0.957139 
0.439923 
0.601543 
0.720262 
0.678778 
0.212759 
0.0816234 
0.274479 
0.867518 
0.559357 
0.464628 
0.430301 
0.773986 
0.65392 
0.657729 
0.161021 
0.432377 
0.505086 
0.375332 
0.480372 
0.342421 
0.777146 
0.383944 
0.711556 
0.480933 
0.72918 
0.937559 
0.517254 
0.903069 
0.218193 
0.873219 
0.0826929 
0.465403 
0.0219298 
0.808281 
0.17921 
0.165392 
0.181603 
0.691437 
0.213764 
0.298105 
0.768335 
0.50115 
0.909465 
0.0578529 
0.436752 
0.572255 
0.565067 
0.823817 
0.126099 
0.300117 
0.00212202 
0.951107 
0.766299 
0.751304 
0.138865 
0.34932 
0.151341 
0.496721 
0.808652 
0.632869 
0.688401 
0.63957 
0.729322 
0.859846 
0.626955 
0.180591 
0.573307 
0.163566 
0.906052 
0.0773428 
0.338535 
0.580618 
0.475235 
0.80532 
0.530778 
0.22731 
0.709485 
0.148633 
0.658116 
0.633983 
0.229306 
0.182228 
0.166353 
0.149607 
0.202747 
0.954959 
0.0159083 
0.957514 
0.0256923 
0.971111 
0.297596 
0.525073 
0.862339 
0.896405 
0.189011 
0.66072 
0.941231 
0.975707 
0.107935 
0.178899 
0.746551 
0.0494685 
0.0712849 
0.489126 
0.849894 
0.997041 
0.00439261 
0.542607 
0.861348 
0.909139 
0.845351 
0.878873 
0.746182 
0.117489 
0.509022 
0.168832 
0.831112 
0.928011 
0.169484 
0.883737 
0.387863 
0.382569 
0.271453 
0.867883 
0.741502 
0.447873 
0.709639 
0.944331 
0.174118 
0.244596 
0.640929 
0.808613 
0.853371 
0.398118 
0.115494 
0.080281 
0.360468 
0.828906 
0.21461 
0.79104 
0.654688 
0.0261464 
0.785776 
0.922563 
0.492313 
0.834012 
0.131354 
0.759783 
0.925736 
0.832708 
0.259401 
0.213022 
0.522315 
0.397357 
0.47911 
0.993904 
0.604478 
0.944909 
0.490442 
0.437947 
0.772656 
0.744067 
0.442904 
0.0530001 
0.0878218 
0.797986 
0.655582 
0.0323356 
0.557067 
0.719802 
0.110408 
0.216647 
0.81102 
0.138662 
0.881899 
0.923556 
0.0127556 
0.377159 
0.167812 
0.540223 
0.101662 
0.0392677 
0.933229 
0.971592 
0.360928 
0.644205 
0.0679473 
0.207912 
0.0396038 
0.469359 
0.150097 
0.991307 
0.427062 
0.955372 
0.724247 
0.580892 
0.540258 
0.705441 
0.00502888 
0.782516 
0.92686 
0.00829566 
0.824628 
0.767336 
0.997137 
0.227653 
0.919542 
0.641999 
0.10532 
0.268161 
0.763844 
0.80551 
0.104253 
0.469759 
0.219062 
0.922708 
0.320323 
0.857544 
0.259847 
0.878063 
0.188268 
0.759194 
0.0316893 
0.642339 
0.566871 
0.37641 
0.212548 
0.792157 
0.145443 
0.489142 
0.0128457 
0.186612 
0.48523 
0.838226 
0.141057 
0.732217 
0.691067 
0.0344926 
0.488857 
0.97139 
0.112451 
0.743214 
0.638541 
0.594183 
0.498623 
0.567853 
0.426504 
0.0762394 
0.290587 
0.561335 
0.633333 
0.930776 
0.977769 
0.0935965 
0.661735 
0.602773 
0.473818 
0.356256 
0.475578 
0.671022 
0.959645 
0.0890843 
0.797742 
0.590776 
0.912197 
0.101129 
0.293295 
0.0515882 
0.504128 
0.768376 
0.282985 
0.22536 
0.33129 
0.453251 
0.737385 
0.509886 
0.382514 
0.905483 
0.965258 
0.628267 
0.132031 
0.618302 
0.38302 
0.991194 
0.286827 
0.706191 
0.535206 
0.193211 
0.689435 
0.050455 
0.184434 
0.0456583 
0.885042 
0.839794 
0.118155 
0.410415 
0.120229 
0.572093 
0.94939 
0.256385 
0.989865 
0.349808 
0.208522 
0.665827 
0.973345 
0.6227 
0.0635379 
0.37351 
0.166252 
0.231278 
0.0522086 
0.901756 
0.793292 
0.373014 
0.832055 
0.753835 
0.621863 
0.394093 
0.359278 
0.0888525 
0.341677 
0.548671 
0.460547 
0.645452 
0.513521 
0.814426 
0.0971832 
0.463714 
0.589817 
0.187172 
0.61133 
0.051942 
0.575727 
0.842345 
0.499726 
0.439025 
0.149057 
0.0282795 
0.75667 
0.796106 
0.293556 
0.115207 
0.375092 
0.828894 
0.841777 
0.665238 
0.96014 
0.943118 
0.112699 
0.648287 
0.480804 
0.0665207 
0.897771 
0.49723 
0.771303 
0.0603622 
0.262457 
0.651069 
0.133604 
0.638546 
0.384943 
0.765698 
0.652916 
0.381489 
0.300019 
0.34014 
0.918927 
0.456267 
0.442497 
0.454186 
0.945282 
0.219119 
0.882403 
0.0198754 
0.341765 
0.766027 
0.342804 
0.618806 
0.453021 
0.0101626 
0.599081 
0.601568 
0.649417 
0.342721 
0.493299 
0.701774 
0.887803 
0.0550578 
0.098362 
0.649783 
0.764071 
0.987959 
0.125325 
0.364477 
0.67623 
0.375758 
0.863458 
0.291977 
0.133475 
0.672651 
0.202585 
0.868515 
0.751157 
0.41938 
0.000231065 
0.149464 
0.273834 
0.872425 
0.601251 
0.321188 
0.284293 
0.435316 
0.903759 
0.925106 
0.505292 
0.627582 
0.719264 
0.0239129 
0.574933 
0.0465345 
0.422531 
0.467734 
0.022628 
0.065074 
0.923956 
0.534143 
0.366796 
0.363946 
0.151374 
0.149609 
0.350802 
0.335966 
0.784028 
0.486739 
0.464798 
0.131253 
0.886391 
0.674557 
0.83516 
0.656488 
0.983917 
0.97979 
0.250153 
0.624571 
0.728242 
0.49817 
0.849828 
0.190918 
0.124144 
0.00279042 
0.152953 
0.534161 
0.510634 
0.385216 
0.310596 
0.00355545 
0.815242 
0.638418 
0.448339 
0.244086 
0.803385 
0.823971 
0.852191 
0.467252 
0.970699 
0.841244 
0.0785482 
0.237599 
0.817571 
0.405829 
0.466312 
0.951536 
0.965005 
0.765285 
0.574534 
0.915925 
0.495432 
0.166012 
0.325998 
0.296436 
0.558298 
0.0674768 
0.0689778 
0.166785 
0.947438 
0.811088 
0.710456 
0.970246 
0.998427 
0.987455 
0.150087 
0.958479 
0.530459 
0.0740865 
0.311821 
0.895171 
0.834768 
0.00234876 
0.64021 
0.803183 
0.245131 
0.0641222 
0.263148 
0.10272 
0.483719 
0.418884 
0.381289 
0.886765 
0.420558 
0.283848 
0.0481811 
0.219166 
0.239176 
0.0292585 
0.702311 
0.00763555 
0.610921 
0.40809 
0.248947 
0.65246 
0.320277 
0.103672 
0.535565 
0.16487 
0.883439 
0.666457 
0.847742 
0.762661 
0.807014 
0.632952 
0.710427 
0.688664 
0.320948 
0.531648 
0.873194 
0.0545397 
0.500401 
0.432763 
0.904282 
0.630183 
0.983036 
0.5852 
0.840637 
0.468814 
0.545222 
0.179104 
0.634462 
0.962959 
0.534014 
0.479614 
0.793666 
0.0927137 
0.8808 
0.00387354 
0.511529 
0.678464 
0.565748 
0.478459 
0.320513 
0.60158 
0.913153 
0.682518 
0.946733 
0.099089 
0.511029 
0.110128 
0.545262 
0.688786 
0.147417 
0.777561 
0.399051 
0.8983 
0.307044 
0.0610511 
0.219471 
0.0828329 
0.950395 
0.0163707 
0.114668 
0.0124099 
0.216227 
0.0114275 
0.642449 
0.516991 
0.245542 
0.193747 
0.0908706 
0.368442 
0.00779291 
0.602701 
0.478855 
0.308118 
0.744444 
0.839349 
0.262432 
0.514238 
0.446774 
0.341211 
0.839142 
0.982493 
0.626465 
0.181275 
0.123017 
0.579969 
0.328536 
0.268186 
0.550239 
0.180517 
0.678492 
0.0556885 
0.0340572 
0.286518 
0.07739 
0.900572 
0.846606 
0.395698 
0.169215 
0.430452 
0.416218 
0.728763 
0.406474 
0.951807 
0.911985 
0.951414 
0.346001 
0.290244 
0.886701 
0.210031 
0.130877 
0.520516 
0.905463 
0.40253 
0.215761 
0.0787395 
0.93306 
0.602872 
0.377492 
0.664931 
0.79219 
0.333492 
0.692659 
0.203816 
0.958714 
0.711832 
0.166907 
0.442777 
0.632994 
0.929967 
0.529331 
0.626474 
0.680819 
0.923198 
0.152834 
0.405721 
0.312476 
0.693899 
0.890688 
0.490671 
0.805824 
0.326439 
0.549879 
0.388784 
0.896829 
0.67612 
0.828397 
0.110089 
0.279227 
0.767636 
0.216057 
0.0340621 
0.436552 
0.936864 
0.262089 
0.569745 
0.359553 
0.0268386 
0.500419 
0.827015 
0.258982 
0.045885 
0.246472 
0.660732 
0.32941 
0.659496 
0.0130041 
0.718068 
0.391119 
0.0335053 
0.406015 
0.716308 
0.921336 
0.984016 
0.983421 
0.896306 
0.865703 
0.800961 
0.554979 
0.418872 
0.127123 
0.654621 
0.863965 
0.274598 
0.840164 
0.0707552 
0.378792 
0.268169 
0.152921 
0.631 
0.316375 
0.959112 
0.498674 
0.738609 
0.0127557 
0.605353 
0.576451 
0.807379 
0.654968 
0.878228 
0.902373 
0.152233 
0.19258 
0.790976 
0.0607051 
0.389827 
0.299966 
0.73418 
0.104209 
0.792575 
0.782729 
0.532398 
0.253352 
0.0709546 
0.625803 
0.0246815 
0.0620425 
0.129612 
0.450614 
0.672336 
0.856111 
0.498445 
0.0487845 
0.313832 
0.641631 
0.786387 
0.28915 
0.497868 
0.818435 
0.595128 
0.536425 
0.330873 
0.41169 
0.794006 
0.343208 
0.462607 
0.367824 
0.679571 
0.567779 
0.651777 
0.491114 
0.398458 
0.477484 
0.0665876 
0.411028 
0.969092 
0.780721 
0.729018 
0.765651 
0.756581 
0.84327 
0.770157 
0.978661 
0.111359 
0.396077 
0.492061 
0.258095 
0.0369662 
0.974381 
0.726426 
0.147965 
0.147895 
0.704824 
0.380994 
0.0764114 
0.41084 
0.142991 
0.79892 
0.930248 
0.00471948 
0.650041 
0.678532 
0.253623 
0.843181 
0.293959 
0.0268604 
0.0933072 
0.797885 
0.711403 
0.783407 
0.623923 
0.825415 
0.0350226 
0.405475 
0.249669 
0.480897 
0.880839 
0.280685 
0.599143 
0.0262261 
0.155199 
0.833911 
0.194893 
0.829788 
0.338075 
0.671117 
0.0523663 
0.734309 
0.499482 
0.9433 
0.289772 
0.37656 
0.113755 
0.964851 
0.432512 
0.0845632 
0.716676 
0.506787 
0.328088 
0.753524 
0.836006 
0.253716 
0.534425 
0.435165 
0.157704 
0.600481 
0.937451 
0.107759 
0.899981 
0.550465 
0.427357 
0.152381 
0.247546 
0.447369 
0.532783 
0.354651 
0.773115 
0.881681 
0.734092 
0.406432 
0.604179 
0.641105 
0.127467 
0.496192 
0.310469 
0.578574 
0.943609 
0.42694 
0.0331284 
0.929434 
0.924982 
0.358307 
0.259989 
0.78686 
0.511582 
0.562527 
0.684794 
0.0923966 
0.872579 
0.942938 
0.0965942 
0.845883 
0.909396 
0.0113411 
0.523683 
0.650345 
0.385145 
0.649302 
0.762853 
0.575686 
0.631919 
0.278204 
0.839836 
0.426835 
0.631622 
0.833467 
0.270185 
0.400801 
0.554255 
0.443865 
0.0903841 
0.744381 
0.0326154 
0.429743 
0.0372623 
0.975798 
0.52234 
0.90963 
0.383248 
0.884452 
0.255018 
0.90905 
0.89456 
0.398517 
0.62502 
0.567597 
0.894512 
0.214166 
0.00385916 
0.880581 
0.235122 
0.244865 
0.640917 
0.304524 
0.825621 
0.883689 
0.945373 
0.390795 
0.80132 
0.157113 
0.625165 
0.698985 
0.0858689 
0.53118 
0.888567 
0.263666 
0.234786 
0.839657 
0.49554 
0.152366 
0.230768 
0.657954 
0.562948 
0.291829 
0.622305 
0.715905 
0.280731 
0.412273 
0.362206 
0.781392 
0.135487 
0.90207 
0.289636 
0.499558 
0.78359 
0.677062 
0.149812 
0.696619 
0.129013 
0.945946 
0.886412 
0.515005 
0.679409 
0.976793 
0.12546 
0.752243 
0.827052 
0.78143 
0.190883 
0.428641 
0.0144567 
0.325285 
0.134702 
0.450517 
0.572275 
0.792023 
0.419737 
0.532537 
0.925704 
0.899082 
0.544833 
0.901124 
0.0518267 
0.808603 
0.334905 
0.228683 
0.822402 
0.348235 
0.165471 
0.0281336 
0.95537 
0.680291 
0.860562 
0.939094 
0.680194 
0.917424 
0.256692 
0.885618 
0.920043 
0.300063 
0.0733909 
0.767399 
0.0849522 
0.728764 
0.44789 
0.651249 
0.169502 
0.531449 
0.633801 
0.014096 
0.470371 
0.886326 
0.114028 
0.442541 
0.659548 
0.294773 
0.950368 
0.694286 
0.206807 
0.554762 
0.879278 
0.557858 
0.752334 
0.894901 
0.841844 
0.130857 
0.189154 
0.15364 
0.0289021 
0.0090849 
0.596452 
0.609049 
0.918923 
0.733574 
0.301147 
0.495574 
0.258163 
0.732854 
0.116761 
0.746042 
0.809789 
0.745234 
0.337143 
0.584325 
0.468952 
0.087265 
0.828717 
0.685945 
0.267325 
0.969484 
0.183774 
0.299941 
0.411185 
0.236489 
0.195055 
0.705379 
0.180548 
0.522333 
0.296172 
0.462782 
0.925232 
0.215889 
0.00100888 
0.906606 
0.680042 
0.514952 
0.522069 
0.102919 
0.99688 
0.358969 
0.625243 
0.393367 
0.00766245 
0.545285 
0.50911 
0.246779 
0.0453953 
0.84173 
0.0482499 
0.31632 
0.783419 
0.9724 
0.586464 
0.778044 
0.727697 
0.650987 
0.664615 
0.93878 
0.535081 
0.39844 
0.670458 
0.440534 
0.132874 
0.439204 
0.547643 
0.395136 
0.398272 
0.751349 
0.52235 
0.490433 
0.0886789 
0.250852 
0.447559 
0.637961 
0.709445 
0.99262 
0.932195 
0.0922295 
0.95354 
0.162796 
0.970455 
0.597007 
0.240227 
0.0702952 
0.300041 
0.813545 
0.0767099 
0.354473 
0.132011 
0.15818 
0.0621471 
0.701843 
0.0864817 
0.616787 
0.173772 
0.651401 
0.498696 
0.284511 
0.83056 
0.81836 
0.938169 
0.000326096 
0.640389 
0.00735569 
0.106421 
0.106794 
0.367109 
0.239608 
0.34614 
0.24962 
0.387064 
0.421038 
0.640077 
0.787553 
0.269994 
0.843982 
0.740468 
0.826102 
0.182192 
0.0654362 
0.61035 
0.701553 
0.111618 
0.0958237 
0.597834 
0.812233 
0.814578 
0.089437 
0.731279 
0.903857 
0.452232 
0.0706877 
0.241278 
0.731865 
0.0404916 
0.424523 
0.540215 
0.953828 
0.208906 
0.116332 
0.64622 
0.108411 
0.983497 
0.248344 
0.606356 
0.816695 
0.830054 
0.489039 
0.760728 
0.915108 
0.900975 
0.214238 
0.547061 
0.784709 
0.194441 
0.746889 
0.475558 
0.583259 
0.260548 
0.0848225 
0.298133 
0.917129 
0.470518 
0.269468 
0.76297 
0.772172 
0.0212996 
0.879986 
0.79817 
0.324165 
0.669044 
0.296294 
0.929952 
0.28196 
0.16888 
0.745167 
0.477134 
0.653445 
0.966576 
0.313027 
0.0764395 
0.791415 
0.365384 
0.585099 
0.183337 
0.0769189 
0.153663 
0.826876 
0.300957 
0.383884 
0.650749 
0.817371 
0.766266 
0.374176 
0.189862 
0.646502 
0.0036053 
0.282888 
0.638601 
0.592075 
0.325289 
0.988951 
0.123236 
0.735877 
0.156617 
0.434647 
0.832243 
0.35991 
0.076238 
0.556926 
0.27393 
0.132055 
0.699655 
0.485905 
0.182716 
0.101215 
0.201584 
0.134746 
0.323789 
0.950545 
0.532131 
0.247686 
0.437276 
0.669088 
0.547696 
0.609054 
0.863135 
0.380696 
0.748956 
0.156697 
0.0581238 
0.339707 
0.817176 
0.377548 
0.972605 
0.605319 
0.338236 
0.927984 
0.898425 
0.850706 
0.256792 
0.285496 
0.779947 
0.701395 
0.492512 
0.967668 
0.476161 
0.994906 
0.490579 
0.503453 
0.768773 
0.388084 
0.453259 
0.132854 
0.758506 
0.565237 
0.648637 
0.798058 
0.220448 
0.857891 
0.904729 
0.29202 
0.72587 
0.339446 
0.272681 
0.170275 
0.664018 
0.535852 
0.829109 
0.267362 
0.176156 
0.431186 
0.475655 
0.785221 
0.130652 
0.0513557 
0.627506 
0.0290876 
0.136195 
0.694556 
0.515679 
0.542582 
0.808484 
0.793686 
0.501867 
0.276632 
0.119665 
0.886598 
0.970289 
0.942526 
0.638128 
0.0905902 
0.0747081 
0.182451 
0.0316877 
0.724936 
0.144159 
0.635927 
0.789848 
0.566253 
0.377414 
0.821586 
0.304881 
0.319373 
0.78498 
0.503736 
0.260997 
0.732476 
0.16295 
0.921075 
0.222223 
0.0836087 
0.0737016 
0.769552 
0.817677 
0.740426 
0.758249 
0.961195 
0.466425 
0.786996 
0.422568 
0.94373 
0.0013144 
0.981268 
0.570194 
0.346471 
0.557503 
0.299785 
0.159073 
0.665256 
0.684203 
0.792409 
0.348624 
0.250075 
0.345003 
0.328633 
0.927486 
0.756072 
0.288239 
0.60618 
0.766029 
0.846152 
0.901981 
0.595707 
0.0685361 
0.218043 
0.869408 
0.414218 
0.661209 
0.783485 
0.247886 
0.554425 
0.229585 
0.00691276 
0.766639 
0.0218332 
0.393103 
0.25254 
0.204217 
0.662279 
0.914742 
0.00690255 
0.746423 
0.799671 
0.907799 
0.974574 
0.119863 
0.51897 
0.821975 
0.637023 
0.95391 
0.946926 
0.966605 
0.0673442 
0.437535 
0.32084 
0.134052 
0.134585 
0.805948 
0.524764 
0.944257 
0.98834 
0.409894 
0.371188 
0.226854 
0.446031 
0.266221 
0.459096 
0.432905 
0.259623 
0.133715 
0.419228 
0.506861 
0.324325 
0.684689 
0.443094 
0.435663 
0.793024 
0.815556 
0.752113 
0.789256 
0.501267 
0.555182 
0.63075 
0.0979892 
0.245676 
0.615725 
0.30496 
0.766968 
0.267229 
0.0395063 
0.296562 
0.556365 
0.969074 
0.689125 
0.717881 
0.559029 
0.533354 
0.875724 
0.393099 
0.458067 
0.208245 
0.757273 
0.546692 
0.357388 
0.700998 
0.109222 
0.00661077 
0.597302 
0.659176 
0.580006 
0.909952 
0.636006 
0.525561 
0.259623 
0.0511709 
0.73195 
0.164291 
0.280397 
0.259427 
0.547096 
0.541268 
0.788113 
0.869606 
0.787541 
0.969428 
0.180468 
0.930599 
0.0451519 
0.240646 
0.00885503 
0.671594 
0.904813 
0.572416 
0.155461 
0.502367 
0.567733 
0.188272 
0.324196 
0.716037 
0.552929 
0.142282 
0.380364 
0.396569 
0.576742 
0.0194015 
0.57758 
0.932196 
0.106873 
0.73215 
0.970523 
0.608886 
0.719666 
0.302752 
0.459022 
0.0480286 
0.385352 
0.361716 
0.287584 
0.816713 
0.450528 
0.806633 
0.790173 
0.282958 
0.0683092 
0.0549307 
0.637523 
0.424286 
0.905531 
0.417321 
0.154058 
0.539999 
0.937091 
0.660955 
0.394657 
0.258991 
0.847912 
0.945056 
0.377 
0.0672802 
0.181582 
0.575748 
0.185885 
0.291448 
0.461664 
0.346977 
0.318166 
0.459915 
0.235895 
0.027752 
0.658453 
0.158804 
0.802663 
0.40858 
0.327392 
0.746015 
0.746352 
0.173955 
0.117545 
0.174038 
0.627409 
0.84189 
0.510083 
0.165764 
0.714305 
0.907037 
0.218538 
0.870961 
0.211836 
0.836665 
0.859302 
0.523377 
0.477363 
0.889883 
0.0650762 
0.509456 
0.620798 
0.733567 
0.229996 
0.0218719 
0.138989 
0.769507 
0.969765 
0.386794 
0.993428 
0.326393 
0.137161 
0.384754 
0.562636 
0.633835 
0.541606 
0.314993 
0.159327 
0.152616 
0.136951 
0.709803 
0.464864 
0.113271 
0.700879 
0.179986 
0.803668 
0.513956 
0.548438 
0.207845 
0.784589 
0.52649 
0.571023 
0.422041 
0.721156 
0.0731383 
0.594862 
0.861977 
0.448801 
0.652577 
0.303473 
0.60744 
0.278902 
0.799562 
0.796169 
0.954087 
0.444338 
0.456883 
0.599817 
0.842622 
0.0312005 
0.18727 
0.943594 
0.947922 
0.452984 
0.810833 
0.928879 
0.672717 
0.372332 
0.405696 
0.438824 
0.678649 
0.46507 
0.953264 
0.354698 
0.339021 
0.89586 
0.545434 
0.749284 
0.124877 
0.453235 
0.0747494 
0.663341 
0.703652 
0.918951 
0.660072 
0.690105 
0.853724 
0.467902 
0.458479 
0.806104 
0.824767 
0.190436 
0.0256732 
0.056815 
0.142936 
0.171419 
0.625845 
0.0295152 
0.472332 
0.678443 
0.114789 
0.236064 
0.289081 
0.172756 
0.323706 
0.80111 
0.299634 
0.775626 
0.552771 
0.554692 
0.730647 
0.773625 
0.900847 
0.138167 
0.794077 
0.189413 
0.0289744 
0.127387 
0.133736 
0.128311 
0.93526 
0.27323 
0.942679 
0.638151 
0.872531 
0.367073 
0.236202 
0.187318 
0.545649 
0.255116 
0.305824 
0.0155486 
0.587488 
0.962558 
0.849848 
0.0079403 
0.634026 
0.359291 
0.11406 
0.540818 
0.416421 
0.517098 
0.886123 
0.149396 
0.434677 
0.0590388 
0.38103 
0.722369 
0.0951192 
0.66719 
0.296401 
0.598563 
0.151852 
0.436377 
0.0126823 
0.229023 
0.26368 
0.511385 
0.215085 
0.34611 
0.747817 
0.413619 
0.0557526 
0.390028 
0.474484 
0.825321 
0.303644 
0.82179 
0.56568 
0.0543816 
0.260014 
0.589104 
0.479734 
0.198651 
0.239013 
0.780193 
0.61731 
0.144129 
0.716132 
0.401506 
0.462385 
0.707282 
0.401211 
0.0143854 
0.0746404 
0.591068 
0.446002 
0.926621 
0.0948934 
0.375419 
0.545999 
0.111678 
0.904463 
0.633277 
0.905412 
0.630553 
0.0142283 
0.316478 
0.111871 
0.629463 
0.0607094 
0.673995 
0.477439 
0.305546 
0.516333 
0.707028 
0.813611 
0.315808 
0.311302 
0.344977 
0.666305 
0.861072 
0.761779 
0.875838 
0.871235 
0.17279 
0.850224 
0.959588 
0.770207 
0.875015 
0.0674135 
0.646792 
0.324097 
0.640347 
0.879751 
0.373638 
0.766738 
0.168087 
0.519725 
0.627456 
0.713914 
0.306396 
0.263687 
0.916004 
0.615034 
0.0931751 
0.627697 
0.192028 
0.776965 
0.864501 
0.333582 
0.135414 
0.765467 
0.318614 
0.25238 
0.200075 
0.0690099 
0.551911 
0.403812 
0.750116 
0.487184 
0.384786 
0.0614085 
0.213691 
0.543873 
0.410645 
0.900963 
0.0562895 
0.443509 
0.537813 
0.134061 
0.540947 
0.857368 
0.198017 
0.155609 
0.0613778 
0.661074 
0.0186026 
0.291103 
0.973824 
0.76464 
0.243684 
0.682116 
0.137855 
0.629812 
0.857015 
0.899798 
0.348368 
0.48631 
0.679517 
0.704122 
0.460884 
0.364272 
0.280265 
0.0762044 
0.444625 
0.165706 
0.398749 
0.920585 
0.511334 
0.914142 
0.0919339 
0.993037 
0.0964336 
0.313147 
0.785375 
0.6024 
0.465908 
0.298131 
0.133173 
0.295009 
0.166627 
0.317104 
0.10984 
0.832088 
0.971593 
0.218271 
0.706078 
0.0390137 
0.616295 
0.669364 
0.0372015 
0.00333456 
0.142464 
0.862405 
0.276037 
0.531692 
0.522221 
0.567618 
0.333033 
0.413417 
0.414348 
0.983922 
0.0577393 
0.396543 
0.791321 
0.594185 
0.309563 
0.901803 
0.093127 
0.319027 
0.886962 
0.657432 
0.684517 
0.473949 
0.141244 
0.950925 
0.882626 
0.437439 
0.834957 
0.325143 
0.367639 
0.794839 
0.0993087 
0.951782 
0.00147392 
0.295396 
0.0484546 
0.44274 
0.789846 
0.913521 
0.533254 
0.804076 
0.56266 
0.750876 
0.00923035 
0.476785 
0.25033 
0.307918 
0.966949 
0.208804 
0.520476 
0.225546 
0.567198 
0.998164 
0.131865 
0.954677 
0.123878 
0.186238 
0.646503 
0.128169 
0.0813205 
0.659227 
0.0273989 
0.98518 
0.539331 
0.373835 
0.706735 
0.947411 
0.382277 
0.692909 
0.602071 
0.775258 
0.591834 
0.37618 
0.850649 
0.225735 
0.796958 
0.996881 
0.281311 
0.710381 
0.664642 
0.414836 
0.49827 
0.949123 
0.953182 
0.732923 
0.38468 
0.0400827 
0.582934 
0.564713 
0.355183 
0.880201 
0.62453 
0.624016 
0.295741 
0.0746799 
0.293706 
0.23474 
0.345897 
0.84849 
0.160364 
0.157864 
0.508659 
0.603301 
0.161397 
0.635454 
0.843941 
0.782269 
0.264566 
0.314699 
0.183196 
0.447473 
0.326679 
0.279816 
0.931764 
0.399692 
0.379423 
0.592846 
0.0685067 
0.205238 
0.723618 
0.575148 
0.200233 
0.84348 
0.42373 
0.544751 
0.527967 
0.185108 
0.0816897 
0.464094 
0.0305548 
0.434984 
0.557865 
0.638782 
0.0342174 
0.7099 
0.169324 
0.593382 
0.608065 
0.77236 
0.0562736 
0.854725 
0.384284 
0.399619 
0.325417 
0.55539 
0.29542 
0.36612 
0.349048 
0.630224 
0.664442 
0.992096 
0.944361 
0.350348 
0.192998 
0.919576 
0.288692 
0.550859 
0.919324 
0.0900485 
0.257696 
0.427048 
0.577723 
0.899521 
0.218226 
0.967032 
0.433981 
0.784822 
0.525234 
0.331277 
0.431594 
0.717902 
0.916212 
0.890028 
0.134706 
0.119913 
0.893452 
0.653086 
0.0402781 
0.504716 
0.894453 
0.385728 
0.292052 
0.234037 
0.200948 
0.380306 
0.59479 
0.268386 
0.622443 
0.804567 
0.103971 
0.72924 
0.64859 
0.474655 
0.932912 
0.0964437 
0.599107 
0.233565 
0.0323283 
0.579859 
0.842198 
0.556897 
0.839883 
0.204952 
0.621255 
0.174021 
0.28954 
0.0185029 
0.701496 
0.952091 
0.749009 
0.756727 
0.542089 
0.282063 
0.244875 
0.286318 
0.963134 
0.230695 
0.537321 
0.205008 
0.434041 
0.142212 
0.375584 
0.793561 
0.812816 
0.903791 
0.540376 
0.817863 
0.708417 
0.0432089 
0.145946 
0.233336 
0.246701 
0.170283 
0.235057 
0.275461 
0.951607 
0.346671 
0.297322 
0.404426 
0.302237 
0.757311 
0.359744 
0.1249 
0.617183 
0.355519 
0.362938 
0.0684883 
0.867162 
0.457896 
0.0776154 
0.904921 
0.281696 
0.613878 
0.661858 
0.200025 
0.959986 
0.665106 
0.5413 
0.868969 
0.557047 
0.0213981 
0.482681 
0.807986 
0.736009 
0.572304 
0.00898485 
0.71828 
0.449427 
0.659617 
0.753208 
0.804739 
0.0291556 
0.779817 
0.56735 
0.0761166 
0.251622 
0.133455 
0.564474 
0.540981 
0.0689214 
0.988431 
0.251095 
0.315473 
0.300657 
0.042039 
0.527901 
0.256022 
0.40871 
0.947513 
0.919281 
0.121244 
0.591945 
0.359652 
0.719307 
0.523551 
0.260843 
0.493079 
0.855836 
0.724406 
0.19911 
0.157286 
0.370476 
0.862272 
0.684763 
0.634198 
0.141323 
0.0793022 
0.876145 
0.420429 
0.487664 
0.460325 
0.515677 
0.271994 
0.23158 
0.899534 
0.908697 
0.603643 
0.365236 
0.598591 
0.668487 
0.894564 
0.0873355 
0.53901 
0.42845 
0.617153 
0.558876 
0.225851 
0.10452 
0.00997766 
0.0591533 
0.322652 
0.779477 
0.335479 
0.619569 
0.992886 
0.648006 
0.539776 
0.232255 
0.739832 
0.888992 
0.859808 
0.597061 
0.654752 
0.915014 
0.433183 
0.289761 
0.631882 
0.295422 
0.622029 
0.0475342 
0.99461 
0.206764 
0.607364 
0.34763 
0.717737 
0.0279933 
0.0668418 
0.927064 
0.0877718 
0.332399 
0.526181 
0.246642 
0.542899 
0.780868 
0.521882 
0.93195 
0.147112 
0.416766 
0.280293 
0.5981 
0.0364749 
0.0636865 
0.322883 
0.0983785 
0.170045 
0.371164 
0.0397616 
0.709241 
0.641341 
0.174061 
0.0621519 
0.406659 
0.463063 
0.202674 
0.86955 
0.59794 
0.0230135 
0.899426 
0.452946 
0.0580262 
0.106269 
0.998425 
0.866327 
0.615206 
0.0269445 
0.322523 
0.463776 
0.0990172 
0.570988 
0.325875 
0.450492 
0.577844 
0.0748443 
0.0573427 
0.300956 
0.521721 
0.56188 
0.241555 
0.91272 
0.825734 
0.444546 
0.982063 
0.578268 
0.234423 
0.81059 
0.451274 
0.249969 
0.955438 
0.14265 
0.512563 
0.971925 
0.648321 
0.614671 
0.46965 
0.577781 
0.911313 
0.37622 
0.228765 
0.423525 
0.273596 
0.444566 
0.627515 
0.534641 
0.385442 
0.87345 
0.300349 
0.40003 
0.517724 
0.0618247 
0.231367 
0.118486 
0.09878 
0.890275 
0.0333891 
0.839035 
0.507267 
0.113716 
0.490446 
0.599442 
0.0902161 
0.978224 
0.653019 
0.461132 
0.863758 
0.262829 
0.823963 
0.328975 
0.941301 
0.244108 
0.95711 
0.510825 
0.56458 
0.993716 
0.770984 
0.313802 
0.0578726 
0.0440738 
0.812944 
0.412073 
0.384163 
0.523127 
0.892149 
0.405921 
0.604389 
0.0948036 
0.335981 
0.144842 
0.244881 
0.378972 
0.27032 
0.215599 
0.633731 
0.799716 
0.208514 
0.896256 
0.745709 
0.536386 
0.969965 
0.564883 
0.21769 
0.857763 
0.861999 
0.313302 
0.326984 
0.840013 
0.492533 
0.0519025 
0.778018 
0.426672 
0.279962 
0.333508 
0.36694 
0.794792 
0.0386908 
0.726669 
0.872684 
0.285815 
0.656849 
0.231887 
0.621954 
0.0751238 
0.966756 
0.60997 
0.383715 
0.0305698 
0.857566 
0.603543 
0.84784 
0.504616 
0.00791084 
0.919073 
0.410705 
0.732366 
0.151105 
0.815233 
0.909603 
0.777942 
0.757123 
0.405198 
0.701901 
0.565461 
0.584736 
0.344915 
0.704233 
0.160864 
0.00151393 
0.562001 
0.546484 
0.550828 
0.694537 
0.927494 
0.94421 
0.903263 
0.604106 
0.92621 
0.116946 
0.340802 
0.0367304 
0.53837 
0.737229 
0.181223 
0.426247 
0.098168 
0.303222 
0.780123 
0.53696 
0.769071 
0.638944 
0.893148 
0.0606904 
0.175772 
0.416332 
0.739792 
0.892955 
0.0258533 
0.137563 
0.424087 
0.764567 
0.524437 
0.754481 
0.169798 
0.672727 
0.618653 
0.00684609 
0.740226 
0.991735 
0.128181 
0.360583 
0.191073 
0.714398 
0.177867 
0.986849 
0.0169991 
0.0397965 
0.804331 
0.859792 
0.566253 
0.754113 
0.519515 
0.585904 
0.190733 
0.503441 
0.0509146 
0.0560957 
0.335197 
0.630905 
0.891978 
0.673397 
0.685267 
0.695745 
0.799831 
0.660605 
0.519937 
0.331736 
0.934173 
0.246477 
0.511206 
0.740318 
0.254169 
0.845585 
0.538154 
0.910136 
0.350706 
0.935325 
0.927719 
0.5877 
0.101762 
0.366876 
0.275846 
0.266098 
0.226539 
0.00132078 
0.893007 
0.453498 
0.578421 
0.315606 
0.994017 
0.983893 
0.964548 
0.666265 
0.726158 
0.334043 
0.522773 
0.273354 
0.718379 
0.778018 
0.0810642 
0.22158 
0.203959 
0.624099 
0.725205 
0.834364 
0.0188954 
0.202118 
0.469093 
0.378395 
0.340394 
0.0638512 
0.761336 
0.402662 
0.67429 
0.551076 
0.0514572 
0.307496 
0.965445 
0.931475 
0.378027 
0.61767 
0.562533 
0.830561 
0.957699 
0.0755057 
0.888024 
0.562447 
0.194355 
0.221453 
0.705763 
0.596761 
0.586296 
0.968494 
0.581743 
0.0998003 
0.166603 
0.102094 
0.146247 
0.671565 
0.639853 
0.372435 
0.162873 
0.389519 
0.799977 
0.399794 
0.755119 
0.29521 
0.640006 
0.885117 
0.209643 
0.480356 
0.112988 
0.13237 
0.0640023 
0.0792974 
0.626954 
0.411334 
0.63859 
0.856557 
0.763575 
0.97616 
0.781537 
0.935583 
0.739152 
0.25362 
0.71925 
0.693513 
0.773319 
0.747217 
0.318384 
0.510431 
0.773066 
0.572816 
0.95385 
0.171572 
0.907235 
0.752219 
0.286175 
0.62741 
0.462828 
0.129439 
0.549385 
0.969509 
0.44214 
0.590964 
0.11097 
0.199852 
0.162964 
0.0368774 
0.272725 
0.230134 
0.358545 
0.134343 
0.998595 
0.513521 
0.387846 
0.249853 
0.364752 
0.399058 
0.926301 
0.495473 
0.609187 
0.00480846 
0.587729 
0.777462 
0.657183 
0.528315 
0.825773 
0.962434 
0.313736 
0.797085 
0.285176 
0.0148949 
0.0941498 
0.328723 
0.305566 
0.0180221 
0.162207 
0.443989 
0.76677 
0.681256 
0.714537 
0.459781 
0.919268 
0.988943 
0.932601 
0.461523 
0.904922 
0.386452 
0.603017 
0.560319 
0.84584 
0.284805 
0.663318 
0.602258 
0.656463 
0.309934 
0.331644 
0.188197 
0.100683 
0.286564 
0.354826 
0.535762 
0.990833 
0.0281781 
0.709532 
0.905157 
0.865829 
0.119169 
0.955275 
0.440901 
0.87576 
0.864952 
0.355151 
0.631146 
0.864549 
0.0209917 
0.0768203 
0.376714 
0.149194 
0.0340969 
0.78225 
0.327245 
0.817476 
0.173619 
0.676118 
0.8756 
0.757155 
0.229626 
0.358944 
0.363164 
0.267443 
0.337303 
0.0869606 
0.45156 
0.454664 
0.0290355 
0.637102 
0.0594588 
0.169196 
0.68468 
0.554567 
0.00603583 
0.288085 
0.376612 
0.146493 
0.0745336 
0.460743 
0.370394 
0.824558 
0.537536 
0.817516 
0.460381 
0.0140338 
0.00498321 
0.166227 
0.365939 
0.71821 
0.159424 
0.278771 
0.644938 
0.287204 
0.321931 
0.155417 
0.387663 
0.895733 
0.887767 
0.393613 
0.675458 
0.252214 
0.949988 
0.624682 
0.206948 
0.109655 
0.56585 
0.274333 
0.0711653 
0.158449 
0.0495203 
0.680884 
0.781756 
0.807365 
0.265054 
0.895899 
0.607986 
0.0144008 
0.344029 
0.533665 
0.627763 
0.446737 
0.811106 
0.144828 
0.974829 
0.83376 
0.340101 
0.616239 
0.303756 
0.0892188 
0.521526 
0.825292 
0.763927 
0.947639 
0.333547 
0.389738 
0.150413 
0.333704 
0.553679 
0.550294 
0.160421 
0.117089 
0.39855 
0.831383 
0.185001 
0.500786 
0.126314 
0.864628 
0.766646 
0.564354 
0.389569 
0.490138 
0.886904 
0.905048 
0.498389 
0.529227 
0.909701 
0.578598 
0.775785 
0.661395 
0.469657 
0.219768 
0.60259 
0.184259 
0.19751 
0.861992 
0.125649 
0.64558 
0.437318 
0.612605 
0.737482 
0.303279 
0.0429677 
0.835508 
0.369308 
0.661339 
0.89572 
0.274099 
0.997898 
0.834353 
0.791344 
0.656613 
0.543673 
0.386681 
0.822232 
0.595335 
0.781641 
0.987675 
0.788254 
0.852921 
0.485613 
0.873756 
0.333847 
0.205317 
0.494357 
0.031209 
0.827574 
0.264257 
0.677499 
0.793864 
0.681844 
0.650759 
0.237342 
0.477403 
0.936419 
0.241104 
0.209114 
0.272472 
0.775817 
0.331411 
0.603075 
0.184015 
0.0874589 
0.308915 
0.230878 
0.909187 
0.936884 
0.0318788 
0.593647 
0.0438175 
0.424903 
0.521581 
0.840339 
0.62503 
0.255205 
0.904691 
0.767301 
0.562666 
0.897154 
0.368079 
0.337731 
0.618855 
0.0868954 
0.375498 
0.187381 
0.810527 
0.723248 
0.674674 
0.913981 
0.820961 
0.548725 
0.0155416 
0.0946864 
0.514758 
0.952483 
0.843061 
0.935012 
0.973413 
0.372526 
0.320901 
0.783248 
0.212222 
0.959152 
0.930233 
0.365729 
0.344912 
0.692682 
0.716604 
0.800343 
0.59367 
0.097175 
0.559509 
0.04309 
0.757632 
0.659648 
0.599459 
0.226995 
0.713714 
0.724502 
0.344218 
0.0327508 
0.843616 
0.7703 
0.509647 
0.706963 
0.791174 
0.330669 
0.913675 
0.576705 
0.287909 
0.266865 
0.890178 
0.366101 
0.150015 
0.946328 
0.650835 
0.982215 
0.193834 
0.828743 
0.493802 
0.590779 
0.0448906 
0.564458 
0.633544 
0.4981 
0.0596236 
0.515163 
0.0531949 
0.843632 
0.594673 
0.691019 
0.647227 
0.62344 
0.953858 
0.176944 
0.474905 
0.842404 
0.496963 
0.762405 
0.179877 
0.691622 
0.914425 
0.162657 
0.428096 
0.0418519 
0.225746 
0.66615 
0.871345 
0.344728 
0.0272516 
0.905283 
0.471062 
0.910464 
0.32798 
0.691104 
0.017448 
0.512347 
0.331814 
0.336112 
0.953346 
0.750505 
0.333924 
0.632833 
0.415546 
0.5765 
0.959501 
0.615848 
0.150578 
0.838271 
0.726165 
0.108846 
0.161352 
0.29701 
0.423582 
0.528414 
0.275097 
0.827956 
0.792785 
0.273748 
0.615694 
0.101551 
0.669963 
0.347397 
0.669496 
0.295302 
0.680428 
0.393773 
0.391818 
0.206963 
0.72452 
0.819305 
0.926472 
0.51412 
0.193143 
0.602901 
0.19818 
0.410393 
0.853075 
0.429082 
0.925659 
0.373078 
0.698246 
0.588625 
0.100866 
0.412395 
0.924708 
0.0555505 
0.384048 
0.24064 
0.227809 
0.35712 
0.924103 
0.502498 
0.803238 
0.350272 
0.458683 
0.951097 
0.132983 
0.0703072 
0.706081 
0.931703 
0.108901 
0.651697 
0.146062 
0.693963 
0.625614 
0.0437234 
0.797924 
0.986211 
0.436745 
0.344749 
0.0488061 
0.225203 
0.581013 
0.601375 
0.252518 
0.654342 
0.0600956 
0.940506 
0.0925306 
0.333978 
0.65105 
0.503911 
0.530925 
0.379124 
0.768907 
0.282511 
0.649273 
0.922184 
0.330672 
0.813439 
0.787636 
0.124322 
0.157388 
0.414998 
0.687333 
0.657704 
0.679977 
0.00938668 
0.12861 
0.763906 
0.841915 
0.746949 
0.944523 
0.919714 
0.223074 
0.509767 
0.78774 
0.522452 
0.617392 
0.558241 
0.730992 
0.0634021 
0.492787 
0.229924 
0.337391 
0.551638 
0.743686 
0.412306 
0.507618 
0.128972 
0.214836 
0.29283 
0.449966 
0.240282 
0.263263 
0.891583 
0.58614 
0.938675 
0.61808 
0.250719 
0.102537 
0.546364 
0.442646 
0.691506 
0.759439 
0.399421 
0.567413 
0.205584 
0.943529 
0.512807 
0.276247 
0.22914 
0.952928 
0.689421 
0.707873 
0.656922 
0.778967 
0.58047 
0.50323 
0.878731 
0.392949 
0.242636 
0.281627 
0.904771 
0.702675 
0.853056 
0.378684 
0.633022 
0.0315568 
0.920034 
0.469747 
0.519903 
0.766312 
0.336217 
0.625985 
0.326902 
0.311107 
0.646078 
0.433692 
0.102887 
0.236151 
0.971783 
0.698897 
0.65945 
0.326097 
0.0198219 
0.570473 
0.0363349 
0.264743 
0.190658 
0.4493 
0.768655 
0.627936 
0.3147 
0.292043 
0.078238 
0.171944 
0.72128 
0.0894486 
0.917812 
0.429677 
0.0797229 
0.572144 
0.831772 
0.347368 
0.779889 
0.708339 
0.590942 
0.376994 
0.393825 
0.428309 
0.423026 
0.218924 
0.496765 
0.0398697 
0.564816 
0.049143 
0.872281 
0.860025 
0.338258 
0.97403 
0.954775 
0.988621 
0.157718 
0.00291835 
0.24818 
0.34629 
0.233339 
0.755891 
0.225928 
0.448443 
0.259445 
0.345795 
0.902955 
0.0127009 
0.132223 
0.388063 
0.840621 
0.213266 
0.935234 
0.9698 
0.375259 
0.984863 
0.122086 
0.760957 
0.579362 
0.621157 
0.489904 
0.22045 
0.144134 
0.635176 
0.802416 
0.669643 
0.471603 
0.944478 
0.591481 
0.226748 
0.683844 
0.320643 
0.748919 
0.998143 
0.269733 
0.93187 
0.696387 
0.0952593 
0.245872 
0.934658 
0.479784 
0.882528 
0.779297 
0.0182839 
0.770762 
0.685798 
0.867667 
0.58051 
0.626105 
0.111147 
0.213694 
0.0363698 
0.444545 
0.326581 
0.287294 
0.496452 
0.181705 
0.933792 
0.940181 
0.591463 
0.000808618 
0.903006 
0.682893 
0.073851 
0.996384 
0.314457 
0.80922 
0.461451 
0.587141 
0.477596 
0.552454 
0.175317 
0.587245 
0.154802 
0.445453 
0.537621 
0.4619 
0.83411 
0.996172 
0.972244 
0.745929 
0.199957 
0.0363292 
0.188604 
0.577547 
0.628272 
0.364775 
0.636558 
0.891293 
0.253518 
0.286359 
0.125419 
0.528574 
0.820766 
0.299775 
0.787679 
0.437013 
0.55054 
0.986114 
0.689781 
0.970137 
0.0959658 
0.898092 
0.0584431 
0.123318 
0.630726 
0.370104 
0.319572 
0.795694 
0.301705 
0.607462 
0.461972 
0.292593 
0.832419 
0.570526 
0.0705081 
0.266312 
0.170875 
0.560307 
0.202091 
0.492369 
0.729367 
0.954996 
0.762368 
0.0800681 
0.938246 
0.974474 
0.60711 
0.957495 
0.330651 
0.901215 
0.000365624 
0.48328 
0.147475 
0.314992 
0.171375 
0.592907 
0.657608 
0.348963 
0.0536934 
0.047168 
0.0558578 
0.071512 
0.0156755 
0.973679 
0.734797 
0.752386 
0.0333136 
0.117606 
0.261303 
0.893358 
0.972061 
0.994074 
0.346786 
0.292302 
0.187247 
0.743148 
0.718019 
0.188895 
0.433938 
0.0455931 
0.655473 
0.781042 
0.8629 
0.785353 
0.433492 
0.347821 
0.0553886 
0.819441 
0.10604 
0.00607405 
0.275042 
0.942771 
0.674259 
0.385658 
0.856946 
0.674825 
0.608097 
0.439426 
0.961285 
0.822906 
0.0104994 
0.141617 
0.48281 
0.580618 
0.292989 
0.438867 
0.398265 
0.137305 
0.952762 
0.360045 
0.836977 
0.0413357 
0.423831 
0.075638 
0.313815 
0.945983 
0.854503 
0.173531 
0.535884 
0.294889 
0.902872 
0.0813874 
0.787475 
0.174408 
0.719988 
0.232007 
0.207137 
0.216132 
0.976671 
0.381849 
0.635289 
0.046564 
0.232068 
0.87484 
0.460143 
0.00306357 
0.464941 
0.824072 
0.871886 
0.301075 
0.236005 
0.831578 
0.437753 
0.507087 
0.185475 
0.151499 
0.906806 
0.99275 
0.390081 
0.826811 
0.954058 
0.893842 
0.841006 
0.683284 
0.171796 
0.237551 
0.434285 
0.0250622 
0.268647 
0.980159 
0.312692 
0.571752 
0.611663 
0.901538 
0.39604 
0.692767 
0.204486 
0.0628528 
0.622386 
0.68802 
0.296785 
0.571562 
0.316223 
0.809498 
0.365498 
0.69879 
0.633426 
0.964579 
0.200797 
0.598178 
0.0837034 
0.544415 
0.846149 
0.0406983 
0.32936 
0.70935 
0.860311 
0.500899 
0.99476 
0.42864 
0.267345 
0.472952 
0.160845 
0.158898 
0.268342 
0.75712 
0.609174 
0.966933 
0.773321 
0.572865 
0.450224 
0.287057 
0.752387 
0.0943582 
0.106786 
0.734894 
0.354592 
0.580634 
0.298855 
0.713681 
0.360486 
0.71846 
0.995324 
0.0837001 
0.468206 
0.0938031 
0.72517 
0.912045 
0.0864144 
0.519951 
0.552631 
0.685149 
0.299655 
0.601878 
0.198504 
0.656757 
0.698357 
0.45968 
0.157659 
0.421786 
0.596054 
0.322331 
0.830729 
0.122685 
0.251181 
0.937608 
0.655208 
0.752911 
0.810859 
0.0484267 
0.414709 
0.725489 
0.139044 
0.632557 
0.246833 
0.839972 
0.836671 
0.453072 
0.394759 
0.961595 
0.0081783 
0.398439 
0.487772 
0.618137 
0.07001 
0.142688 
0.654227 
0.21832 
0.119132 
0.0431371 
0.165558 
0.511106 
0.867268 
0.766261 
0.134951 
0.0649207 
0.672445 
0.482207 
0.495418 
0.313484 
0.323501 
0.909101 
0.450337 
0.748636 
0.185253 
0.084922 
0.207029 
0.558916 
0.6617 
0.939213 
0.0402454 
0.163658 
0.438123 
0.325668 
0.0899324 
0.81032 
0.399559 
0.655314 
0.566843 
0.00312186 
0.651351 
0.317097 
0.265934 
0.460448 
0.623161 
0.801853 
0.561164 
0.0248041 
0.79354 
0.273089 
0.822911 
0.688555 
0.603902 
0.38695 
0.0655353 
0.998593 
0.661044 
0.229172 
0.0922546 
0.240979 
0.90257 
0.217348 
0.479523 
0.909228 
0.193782 
0.447988 
0.6178 
0.594213 
0.665877 
0.26768 
0.423867 
0.799324 
0.932313 
0.469719 
0.306303 
0.439372 
0.30686 
0.275013 
0.138747 
0.166547 
0.493947 
0.0865835 
0.926839 
0.148476 
0.160479 
0.717724 
0.674894 
0.35852 
0.0904579 
0.00824805 
0.372779 
0.788307 
0.447286 
0.0996247 
0.805831 
0.659455 
0.452364 
0.533362 
0.526665 
0.629681 
0.646564 
0.191831 
0.801732 
0.196571 
0.411294 
0.235693 
0.272205 
0.00866849 
0.928281 
0.520219 
0.464126 
0.52353 
0.336812 
0.332379 
0.988288 
0.473717 
0.746861 
0.669959 
0.795592 
0.272543 
0.283915 
0.717256 
0.184637 
0.833703 
0.169665 
0.953266 
0.722548 
0.134248 
0.853092 
0.931693 
0.564185 
0.398823 
0.441603 
0.701681 
0.260043 
0.0285295 
0.947965 
0.996169 
0.779483 
0.989401 
0.487553 
0.127983 
0.464367 
0.74259 
0.673392 
0.87398 
0.75825 
0.617175 
0.274817 
0.336378 
0.835724 
0.385886 
0.0803466 
0.865584 
0.435374 
0.172081 
0.00429641 
0.652497 
0.36969 
0.376099 
0.441342 
0.516124 
0.300115 
0.478322 
0.00624689 
0.171436 
0.303557 
0.744465 
0.580893 
0.701207 
0.804664 
0.851985 
0.117721 
0.657264 
0.752951 
0.702129 
0.605118 
0.0382666 
0.19515 
0.330682 
0.642833 
0.217404 
0.0769098 
0.980589 
0.206759 
0.983253 
0.610371 
0.247979 
0.517958 
0.712831 
0.259869 
0.114686 
0.549669 
0.218902 
0.312176 
0.973133 
0.30919 
0.946248 
0.410562 
0.0103336 
0.310069 
0.155207 
0.994083 
0.450239 
0.545218 
0.262332 
0.882541 
0.103061 
0.823563 
0.427176 
0.920345 
0.528012 
0.870835 
0.352811 
0.400152 
0.597923 
0.911518 
0.132987 
0.0421674 
0.401039 
0.595708 
0.919679 
0.293776 
0.545039 
0.781682 
0.3274 
0.0952628 
0.441683 
0.0290768 
0.67539 
0.11159 
0.19964 
0.530162 
0.627357 
0.373597 
0.606454 
0.846389 
0.701946 
0.392874 
0.571869 
0.249774 
0.727347 
0.343329 
0.0786347 
0.302231 
0.300402 
0.0232212 
0.176114 
0.860919 
0.655948 
0.856538 
0.27094 
0.895948 
0.20879 
0.964168 
0.41436 
0.229565 
0.81837 
0.360443 
0.501524 
0.747674 
0.83185 
0.394471 
0.0966363 
0.265392 
0.791945 
0.936861 
0.568259 
0.938022 
0.597248 
0.987952 
0.762349 
0.185616 
0.51677 
0.640152 
0.868951 
0.600118 
0.999669 
0.129176 
0.293371 
0.476879 
0.129582 
0.228123 
0.181072 
0.672016 
0.325785 
0.790588 
0.546014 
0.230557 
0.686762 
0.0490826 
0.572599 
0.993762 
0.362969 
0.558721 
0.92728 
0.259876 
0.832475 
0.175126 
0.879842 
0.279633 
0.849476 
0.806716 
0.189125 
0.978559 
0.253728 
0.778546 
0.810785 
0.497953 
0.915723 
0.100984 
0.135825 
0.858317 
0.0186465 
0.728328 
0.816658 
0.11622 
0.488556 
0.347448 
0.773891 
0.285287 
0.824397 
0.173061 
0.863643 
0.926055 
0.191104 
0.0503525 
0.548449 
0.0095179 
0.828364 
0.908544 
0.705297 
0.24333 
0.589232 
0.9389 
0.895502 
0.606226 
0.792378 
0.836168 
0.560141 
0.000695104 
0.251275 
0.431949 
0.430653 
0.875233 
0.0676409 
0.339907 
0.177062 
0.246035 
0.727819 
0.288205 
0.237342 
0.139659 
0.22073 
0.817547 
0.378229 
0.665515 
0.935813 
0.426481 
0.60516 
0.969584 
0.364651 
0.664448 
0.314755 
0.885716 
0.295545 
0.295366 
0.907082 
0.492885 
0.20714 
0.0258192 
0.170209 
0.302341 
0.96144 
0.783657 
0.673256 
0.840722 
0.420854 
0.703737 
0.481287 
0.820576 
0.43739 
0.859974 
0.00889723 
0.996031 
0.275201 
0.0335164 
0.1521 
0.479596 
0.888842 
0.283419 
0.784127 
0.170393 
0.731294 
0.246622 
0.0818409 
0.852909 
0.686552 
0.958111 
0.985056 
0.534723 
0.90598 
0.476649 
0.889671 
0.0238498 
0.128725 
0.74064 
0.39102 
0.393628 
0.601848 
0.0238855 
0.387671 
0.0567461 
0.689571 
0.520391 
0.0760865 
0.40626 
0.430213 
0.659312 
0.218391 
0.0810887 
0.467672 
0.728672 
0.613984 
0.900598 
0.252779 
0.220095 
0.235805 
0.81013 
0.702409 
0.878505 
0.711011 
0.66108 
0.439577 
0.562794 
0.990311 
0.957315 
0.336818 
0.155456 
0.417079 
0.554477 
0.0297521 
0.866706 
0.894414 
0.49719 
0.209287 
0.721597 
0.699716 
0.460747 
0.170593 
0.794371 
0.8885 
0.142515 
0.939672 
0.000260855 
0.438805 
0.0111678 
0.234516 
0.706984 
0.694164 
0.265121 
0.326574 
0.0932339 
0.0415994 
0.75928 
0.324874 
0.521822 
0.951888 
0.668978 
0.473122 
0.649372 
0.665636 
0.230147 
0.80489 
0.502785 
0.43403 
0.709034 
0.555264 
0.255004 
0.0752006 
0.589102 
0.674242 
0.588013 
0.533702 
0.472616 
0.323811 
0.430986 
0.764898 
0.996463 
0.265018 
0.792067 
0.134609 
0.0355361 
0.453946 
0.562977 
0.230883 
0.144762 
0.677096 
0.354071 
0.510472 
0.694707 
0.595293 
0.506111 
0.776399 
0.685203 
0.319494 
0.832143 
0.660822 
0.587068 
0.0190784 
0.83695 
0.113998 
0.84042 
0.337497 
0.429436 
0.793779 
0.141567 
0.608102 
0.930629 
0.636444 
0.0477707 
0.698346 
0.25711 
0.690902 
0.36318 
0.541884 
0.222142 
0.905487 
0.373541 
0.0788165 
0.0309299 
0.626901 
0.936997 
0.319935 
0.745175 
0.288928 
0.124354 
0.514081 
0.387512 
0.97861 
0.291818 
0.592343 
0.571356 
0.615856 
0.560914 
0.279859 
0.15185 
0.733013 
0.0396985 
0.801622 
0.406417 
0.830011 
0.971035 
0.422483 
0.0539048 
0.787037 
0.630077 
0.508819 
0.567686 
0.309191 
0.747136 
0.336661 
0.883354 
0.333656 
0.796015 
0.804784 
0.0502387 
0.402505 
0.965192 
0.414376 
0.330524 
0.636372 
0.858025 
0.788284 
0.53841 
0.74167 
0.739721 
0.444795 
0.85041 
0.494535 
0.948158 
0.797788 
0.133045 
0.23777 
0.127723 
0.53412 
0.0566967 
0.468575 
0.982688 
0.682221 
0.870901 
0.496211 
0.287662 
0.183019 
0.961219 
0.756261 
0.950353 
0.671267 
0.186055 
0.289842 
0.0582078 
0.0440662 
0.279559 
0.17047 
0.677101 
0.902418 
0.351987 
0.100159 
0.793002 
0.468432 
0.687341 
0.683079 
0.421436 
0.659343 
0.633427 
0.525146 
0.191281 
0.511906 
0.74833 
0.419827 
0.737479 
0.686468 
0.955726 
0.307906 
0.342301 
0.387034 
0.0261759 
0.633546 
0.565251 
0.365511 
0.421459 
0.4622 
0.314439 
0.225662 
0.115937 
0.133966 
0.946523 
0.492433 
0.748214 
0.310935 
0.00770528 
0.615622 
0.357573 
0.648829 
0.845977 
0.101353 
0.588302 
0.582382 
0.521804 
0.4546 
0.966702 
0.182307 
0.559392 
0.626474 
0.03013 
0.642273 
0.838161 
0.395136 
0.437342 
0.0848828 
0.581377 
0.871682 
0.206907 
0.09461 
0.187952 
0.667837 
0.732421 
0.63101 
0.468206 
0.314362 
0.641467 
0.562027 
0.663727 
0.124877 
0.674027 
0.680311 
0.93012 
0.82882 
0.1781 
0.949241 
0.199623 
0.217681 
0.00852194 
0.300627 
0.274471 
0.586448 
0.396553 
0.186403 
0.392816 
0.154594 
0.832304 
0.149752 
0.679546 
0.75009 
0.01489 
0.142246 
0.0306556 
0.808696 
0.047146 
0.666181 
0.456032 
0.802996 
0.358439 
0.025334 
0.218588 
0.710915 
0.548921 
0.869693 
0.738836 
0.10323 
0.971433 
0.738713 
0.0138576 
0.679122 
0.485503 
0.0347184 
0.11444 
0.0766251 
0.607825 
0.233466 
0.142011 
0.530173 
0.930301 
0.616903 
0.689892 
0.234426 
0.206844 
0.0373663 
0.663365 
0.507255 
0.4858 
0.861695 
0.965515 
0.759688 
0.246679 
0.676267 
0.759305 
0.58619 
0.822439 
0.926835 
0.637567 
0.0189379 
0.184341 
0.0267407 
0.934999 
0.484467 
0.794786 
0.456835 
0.494209 
0.425714 
0.891772 
0.874285 
0.63315 
0.292279 
0.291678 
0.2455 
0.704348 
0.774612 
0.822654 
0.80619 
0.253771 
0.8005 
0.629709 
0.231502 
0.381077 
0.453202 
0.50056 
0.540572 
0.345145 
0.29143 
0.703529 
0.934078 
0.594175 
0.593091 
0.738731 
0.372643 
0.45327 
0.509376 
0.928711 
0.450788 
0.637435 
0.459364 
0.553774 
0.0412327 
0.802202 
0.671512 
0.200328 
0.0145864 
0.763166 
0.567512 
0.654214 
0.63474 
0.73433 
0.887327 
0.665909 
0.120675 
0.713736 
0.447227 
0.640982 
0.648896 
0.678375 
0.0588276 
0.223953 
0.167982 
0.928529 
0.515231 
0.673364 
0.6678 
0.0814614 
0.225073 
0.284189 
0.913764 
0.229102 
0.24862 
0.676291 
0.648491 
0.703677 
0.837103 
0.727296 
0.0194344 
0.583746 
0.920877 
0.091678 
0.554561 
0.930803 
0.199453 
0.52532 
0.126739 
0.748727 
0.314669 
0.187174 
0.980395 
0.712827 
0.82565 
0.68322 
0.689402 
0.530876 
0.188854 
0.493016 
0.55954 
0.82828 
0.202869 
0.527746 
0.807811 
0.355104 
0.547755 
0.717438 
0.202512 
0.643757 
8.9016e-05 
0.513177 
0.569829 
0.0070367 
0.892472 
0.833194 
0.775165 
0.788136 
0.37363 
0.152312 
0.35226 
0.645098 
0.931937 
0.093321 
0.738778 
0.0552674 
0.757158 
0.463489 
0.0450044 
0.84203 
0.164712 
0.115074 
0.271561 
0.314386 
0.60609 
0.677467 
0.987642 
0.993261 
0.757536 
0.27506 
0.954014 
0.411082 
0.216623 
0.62913 
0.014869 
0.0432998 
0.180262 
0.200465 
0.719358 
0.442868 
0.845493 
0.38979 
0.837552 
0.748419 
0.583861 
0.160574 
0.52884 
0.462671 
0.379544 
0.09323 
0.259145 
0.335837 
0.375112 
0.14626 
0.31677 
0.281225 
0.820124 
0.34209 
0.872002 
0.268029 
0.775432 
0.609209 
0.0179688 
0.701511 
0.0157523 
0.683893 
0.877902 
0.431806 
0.631343 
0.586041 
0.227411 
0.784655 
0.287636 
0.924376 
0.298475 
0.536303 
0.333647 
0.237294 
0.545239 
0.107686 
0.137155 
0.0944275 
0.310884 
0.812636 
0.513558 
0.866476 
0.980487 
0.326653 
0.219617 
0.518224 
0.353006 
0.859477 
0.260021 
0.843721 
0.582802 
0.719406 
0.343524 
0.00927392 
0.192446 
0.507388 
0.0242418 
0.550041 
0.276184 
0.696241 
0.881353 
0.0246814 
0.341206 
0.421406 
0.0800112 
0.0793538 
0.0723762 
0.900341 
0.969308 
0.391307 
0.313585 
0.553314 
0.792048 
0.798314 
0.863259 
0.797962 
0.00637641 
0.919901 
0.0179622 
0.0294165 
0.711452 
0.538414 
0.524589 
0.50224 
0.0656725 
0.230041 
0.11704 
0.989771 
0.0705165 
0.0600237 
0.661577 
0.344058 
0.128513 
0.637136 
0.746488 
0.805267 
0.269027 
0.43398 
0.401806 
0.608142 
0.770087 
0.941124 
0.131465 
0.255723 
0.378311 
0.993736 
0.340951 
0.899552 
0.237482 
0.220001 
0.991076 
0.951105 
0.638217 
0.504131 
0.358118 
0.768452 
0.784363 
0.0289181 
0.0524412 
0.323419 
0.799687 
0.63023 
0.982798 
0.15825 
0.616676 
0.308717 
0.0850785 
0.87683 
0.590701 
0.303123 
0.16807 
0.339877 
0.0674461 
0.65349 
0.244286 
0.757918 
0.299014 
0.418815 
0.0558322 
0.0308563 
0.18658 
0.270906 
0.0662433 
0.333494 
0.0499056 
0.101309 
0.0718698 
0.904513 
0.311798 
0.591769 
0.377625 
0.951564 
0.742395 
0.887093 
0.598896 
0.68963 
0.391117 
0.223274 
0.13126 
0.172478 
0.938598 
0.034482 
0.879557 
0.522327 
0.808247 
0.44758 
0.346539 
0.757151 
0.360213 
0.556607 
0.888721 
0.840164 
0.244027 
0.435618 
0.828553 
0.152703 
0.757954 
0.876508 
0.502124 
0.570267 
0.851482 
0.984643 
0.790214 
0.350683 
0.501905 
0.255212 
0.509872 
0.0786199 
0.0558993 
0.634988 
0.616903 
0.0814735 
0.609521 
0.544671 
0.855922 
0.64269 
0.271633 
0.106751 
0.0605134 
0.621883 
0.69907 
0.27494 
0.421969 
0.365823 
0.0821587 
0.0697698 
0.12089 
0.677853 
0.218936 
0.23728 
0.00863462 
0.727111 
0.561034 
0.551973 
0.742254 
0.824633 
0.393395 
0.135944 
0.195743 
0.720299 
0.669635 
0.0598496 
0.384277 
0.491236 
0.774162 
0.147811 
0.485534 
0.0718349 
0.787444 
0.393732 
0.236161 
0.0805677 
0.0790048 
0.927429 
0.204715 
0.956581 
0.339742 
0.959966 
0.343146 
0.0634228 
0.612473 
0.555613 
0.90645 
0.201225 
0.787694 
0.347719 
0.972151 
0.836052 
0.711806 
0.2149 
0.0154477 
0.210044 
0.536468 
0.108458 
0.853762 
0.910851 
0.333725 
0.469143 
0.00289686 
0.310908 
0.485222 
0.262165 
0.683112 
0.911186 
0.570502 
0.265278 
0.928472 
0.0642448 
0.626302 
0.948279 
0.516393 
0.956704 
0.272021 
0.52699 
0.911192 
0.214685 
0.826785 
0.138328 
0.437751 
0.875283 
0.704312 
0.497022 
0.609597 
0.0778284 
0.241433 
0.0257842 
0.846477 
0.0148628 
0.550416 
0.119671 
0.587949 
0.622211 
0.747018 
0.309928 
0.916504 
0.782266 
0.101047 
0.281105 
0.907505 
0.111087 
0.78982 
0.10228 
0.767944 
0.662055 
0.773098 
0.931981 
0.176884 
0.0204218 
0.833639 
0.473194 
0.108646 
0.0890544 
0.11513 
0.167973 
0.97251 
0.286004 
0.599024 
0.852209 
0.244785 
0.727168 
0.400791 
0.310601 
0.653799 
0.391825 
0.119336 
0.978538 
0.518252 
0.507769 
0.325022 
0.197272 
0.862893 
0.267868 
0.538681 
0.551466 
0.963257 
0.269576 
0.265718 
0.30999 
0.557298 
0.378189 
0.245765 
0.676179 
0.261294 
0.961486 
0.497577 
0.427772 
0.567792 
0.613038 
0.806993 
0.880783 
0.159978 
0.0891769 
0.313135 
0.607353 
0.378738 
0.925543 
0.0570135 
0.994016 
0.666958 
0.61715 
0.147886 
0.0289962 
0.57247 
0.0299816 
0.711534 
0.214038 
0.255187 
0.958593 
0.181891 
0.798457 
0.0400427 
0.309159 
0.967092 
0.26699 
0.121876 
0.607378 
0.645352 
0.874425 
0.897329 
0.0531776 
0.759513 
0.858904 
0.481723 
0.0750965 
0.0907212 
0.200216 
0.778287 
0.40728 
0.827042 
0.147968 
0.732915 
0.149892 
0.83843 
0.545367 
0.961168 
0.0754953 
0.933833 
0.359424 
0.0669304 
0.965933 
0.649453 
0.420617 
0.596441 
0.347088 
0.217627 
0.0378413 
0.153425 
0.373382 
0.876815 
0.441148 
0.63777 
0.387807 
0.837196 
0.766317 
0.125584 
0.0926611 
0.660318 
0.37767 
0.107792 
0.623811 
0.621601 
0.911627 
0.606132 
0.485346 
0.576741 
0.982101 
0.518568 
0.348702 
0.982874 
0.99201 
0.896157 
0.74158 
0.664737 
0.733363 
0.435916 
0.399632 
0.217891 
0.88163 
0.94207 
0.948955 
0.106443 
0.0579753 
0.163724 
0.527474 
0.0697481 
0.0101458 
0.09168 
0.607435 
0.0560855 
0.6581 
0.57582 
0.0738354 
0.241569 
0.351195 
0.126739 
0.739409 
0.44568 
0.0176116 
0.681708 
0.880833 
0.139821 
0.810854 
0.25286 
0.0243857 
0.530724 
0.934855 
0.769329 
0.404752 
0.717811 
0.481323 
0.441176 
0.942361 
0.578778 
0.78361 
0.714807 
0.142166 
0.692919 
0.393649 
0.127768 
0.640904 
0.497508 
0.0639725 
0.523537 
0.31454 
0.854892 
0.00901511 
0.202585 
0.880604 
0.21805 
0.31769 
0.343964 
0.800077 
0.571084 
0.813238 
0.0861796 
0.192137 
0.629502 
0.0638635 
0.742962 
0.603397 
0.798444 
0.160595 
0.737931 
0.75704 
0.881311 
0.429242 
0.187483 
0.303032 
0.320757 
0.442007 
0.361885 
0.6256 
0.938827 
0.286904 
0.244599 
0.920854 
0.926217 
0.309941 
0.0764754 
0.780878 
0.130745 
0.461482 
0.440169 
0.605002 
0.127021 
0.599044 
0.132126 
0.115337 
0.441073 
0.271099 
0.944107 
0.516643 
0.445292 
0.308588 
0.469598 
0.779443 
0.168813 
0.022451 
0.708729 
0.60515 
0.41368 
0.91477 
0.477181 
0.916222 
0.496907 
0.927553 
0.703651 
0.694642 
0.0045936 
0.540219 
0.41297 
0.62813 
0.543536 
0.215998 
0.552105 
0.862749 
0.00493932 
0.125084 
0.775071 
0.0203864 
0.142633 
0.320411 
0.90475 
0.614156 
0.0158979 
0.311394 
0.192772 
0.275468 
0.0267102 
0.83064 
0.764278 
0.721157 
0.822717 
0.764544 
0.120567 
0.384332 
0.0279232 
0.00130448 
0.00699798 
0.167784 
0.150436 
0.515494 
0.418883 
0.593813 
0.276981 
0.592827 
0.58514 
0.12159 
0.0785936 
0.0320662 
0.168168 
0.524171 
0.841369 
0.306412 
0.191161 
0.0651194 
0.94601 
0.244766 
0.625404 
0.206674 
0.241743 
0.743413 
0.156004 
0.823172 
0.0939854 
0.979798 
0.653221 
0.284114 
0.867233 
0.0301398 
0.760938 
0.896177 
0.618875 
0.720746 
0.46385 
0.758886 
0.00714197 
0.193486 
0.0914518 
0.167933 
0.942248 
0.849432 
0.137283 
0.660725 
0.0384897 
0.148163 
0.184764 
0.645362 
0.856553 
0.853376 
0.494038 
0.780877 
0.274654 
0.96738 
0.990529 
0.084449 
0.329793 
0.268299 
0.215923 
0.767022 
0.365054 
0.154017 
0.165022 
0.893364 
0.94579 
0.517467 
0.0183734 
0.419306 
0.122085 
0.951848 
0.27018 
0.893653 
0.895192 
0.775532 
0.908821 
0.0166804 
0.959289 
0.0752526 
0.285133 
0.488117 
0.970572 
0.568113 
0.27397 
0.129083 
0.155192 
0.268812 
0.433889 
0.395903 
0.425246 
0.614389 
0.446805 
0.0120233 
0.0342709 
0.39877 
0.97945 
0.542769 
0.912387 
0.324159 
0.290517 
0.878974 
0.779144 
0.394412 
0.882326 
0.425668 
0.466378 
0.424931 
0.45521 
0.695425 
0.0955782 
0.73346 
0.130018 
0.496529 
0.259658 
0.591667 
0.227618 
0.955118 
0.0630095 
0.183247 
0.624242 
0.291406 
0.137187 
0.188933 
0.956617 
0.296613 
0.237203 
0.660158 
0.00429597 
0.0781685 
0.309584 
0.223971 
0.695289 
0.700232 
0.851815 
0.55906 
0.570332 
0.53092 
0.858886 
0.446346 
0.383381 
0.595359 
0.30504 
0.101108 
0.371939 
0.222155 
0.643227 
0.776656 
0.430034 
0.621062 
0.279075 
0.478048 
0.314742 
0.82717 
0.743161 
0.144311 
0.0682651 
0.532137 
0.743955 
0.835734 
0.720663 
0.887623 
0.162853 
0.20124 
0.881962 
0.461959 
0.18705 
0.724882 
0.883553 
0.798011 
0.842972 
0.538046 
0.209589 
0.530445 
0.843302 
0.21534 
0.716726 
0.862668 
0.471264 
0.460504 
0.942528 
0.628343 
0.806387 
0.40154 
0.321394 
0.378806 
0.718969 
0.193064 
0.489987 
0.120771 
0.13992 
0.947195 
0.630943 
0.438656 
0.707762 
0.529646 
0.652427 
0.778184 
0.618018 
0.502087 
0.485372 
0.11015 
0.91655 
0.432619 
0.426998 
0.0292861 
0.510426 
0.963703 
0.27535 
0.743411 
0.116803 
0.769331 
0.765719 
0.540766 
0.169318 
0.93012 
0.208209 
0.0197606 
0.601611 
0.607371 
0.468855 
0.596314 
0.723459 
0.408111 
0.597614 
0.42571 
0.121842 
0.349953 
0.546746 
0.127099 
0.0814966 
0.289457 
0.676816 
0.457042 
0.499215 
0.0584782 
0.0736061 
0.337877 
0.336071 
0.98496 
0.751664 
0.646531 
0.882865 
0.51189 
0.376203 
0.883762 
0.245762 
0.164003 
0.658604 
0.255618 
0.157603 
0.276606 
0.298709 
0.00590433 
0.228652 
0.670118 
0.981666 
0.256149 
0.619173 
0.971829 
0.492171 
0.301027 
0.597097 
0.543383 
0.129771 
0.552219 
0.149064 
0.258549 
0.528712 
0.813377 
0.718534 
0.500819 
0.893981 
0.950717 
0.462355 
0.287597 
0.926367 
0.496328 
0.87733 
0.213238 
0.114401 
0.124316 
0.574103 
0.466372 
0.374039 
0.754615 
0.455602 
0.706028 
0.929508 
0.820466 
0.0398475 
0.966189 
0.887968 
0.638774 
0.0109541 
0.977259 
0.385528 
0.399659 
0.510288 
0.55163 
0.958893 
0.855401 
0.476705 
0.877816 
0.389878 
0.0491625 
0.307435 
0.32021 
0.461296 
0.488134 
0.706741 
0.367297 
0.941439 
0.268188 
0.745396 
0.909073 
0.584553 
0.906503 
0.0566831 
0.556736 
0.00296136 
0.153156 
0.407491 
0.233446 
0.535314 
0.311606 
0.708634 
0.587061 
0.239191 
0.0640589 
0.00336919 
0.189073 
0.491204 
0.616469 
0.122776 
0.133032 
0.314181 
0.0878552 
0.408793 
0.282319 
0.63059 
0.219755 
0.654254 
0.193468 
0.0946 
0.91836 
0.55824 
0.417641 
0.110447 
0.552744 
0.111281 
0.236022 
0.138654 
0.32824 
0.346442 
0.928757 
0.888317 
0.790044 
0.0744703 
0.419797 
0.396724 
0.412931 
0.973954 
0.237895 
0.108576 
0.800029 
0.0448126 
0.959956 
0.801644 
0.960596 
0.765749 
0.608232 
0.989042 
0.562556 
0.495888 
0.253041 
0.195961 
0.492735 
0.710884 
0.987619 
0.33462 
0.220165 
0.34528 
0.0916063 
0.631601 
0.378188 
0.887363 
0.426527 
0.890774 
0.22423 
0.79693 
0.858281 
0.427096 
0.58886 
0.0916995 
0.250583 
0.593771 
0.520579 
0.914054 
0.663293 
0.499653 
0.634803 
0.0863605 
0.0408072 
0.751564 
0.323757 
0.0664906 
0.923257 
0.0543605 
0.0679426 
0.573534 
0.439199 
0.0273687 
0.0496993 
0.238553 
0.127301 
0.630329 
0.476414 
0.109997 
0.435432 
0.901879 
0.565834 
0.730644 
0.98096 
0.588209 
0.503161 
0.531594 
0.606287 
0.764317 
0.600624 
0.722586 
0.435215 
0.646525 
0.176695 
0.876476 
0.25169 
0.356484 
0.303346 
0.96776 
0.192292 
0.0978644 
0.69379 
0.0960245 
0.199386 
0.607055 
0.709711 
0.890528 
0.602642 
0.862453 
0.675957 
0.784999 
0.536648 
0.00444744 
0.198611 
0.438725 
0.558291 
0.385129 
0.646859 
0.585674 
0.766331 
0.174635 
0.503115 
0.382675 
0.977198 
0.936084 
0.892737 
0.44353 
0.751527 
0.909403 
0.373318 
0.116291 
0.525121 
0.341125 
0.849403 
0.186232 
0.208745 
0.530431 
0.0842852 
0.24077 
0.634553 
0.111076 
0.607345 
0.889758 
0.490686 
0.313508 
0.76214 
0.954526 
0.645884 
0.48532 
0.438182 
0.186382 
0.443134 
0.48812 
0.861131 
0.716456 
0.620333 
0.0897736 
0.111761 
0.575589 
0.461657 
0.545449 
0.0380123 
0.579286 
0.628978 
0.481927 
0.160527 
0.754379 
0.793496 
0.291369 
0.507608 
0.237992 
0.192685 
0.808697 
0.0666733 
0.195862 
0.974782 
0.57509 
0.583214 
0.950022 
0.100039 
0.878734 
0.891451 
0.214037 
0.166952 
0.646125 
0.180344 
0.11655 
0.365334 
0.402375 
0.0898099 
0.683768 
0.546894 
0.985959 
0.21275 
0.918991 
0.665162 
0.743478 
0.378457 
0.474768 
0.106262 
0.883784 
0.445103 
0.668228 
0.728216 
0.285643 
0.593687 
0.37053 
0.795638 
0.0735345 
0.992738 
0.776029 
0.00737046 
0.888948 
0.864125 
0.697594 
0.884992 
0.465645 
0.371558 
0.0830216 
0.997219 
0.86983 
7.02607e-05 
0.679977 
0.65488 
0.411813 
0.476368 
0.388271 
0.452057 
0.0267598 
0.425286 
0.105805 
0.0431113 
0.556122 
0.611287 
0.738832 
0.256919 
0.726259 
0.713253 
0.503765 
0.89277 
0.779385 
0.49486 
0.761507 
0.667045 
0.978112 
0.117071 
0.869323 
0.567855 
0.120151 
0.970329 
0.839967 
0.0623166 
0.278073 
0.40963 
0.626809 
0.919103 
0.415152 
0.7115 
0.970875 
0.435472 
0.635382 
0.901555 
0.871584 
0.142716 
0.200598 
0.620928 
0.775029 
0.246811 
0.369452 
0.341097 
0.45639 
0.170824 
0.745606 
0.0979779 
0.890269 
0.0820942 
0.781523 
0.848678 
0.450877 
0.605325 
0.35447 
0.759095 
0.589441 
0.61157 
0.843171 
0.456988 
0.88279 
0.493573 
0.622851 
0.562165 
0.721661 
0.54677 
0.784441 
0.446353 
0.911908 
0.086587 
0.998937 
0.727581 
0.558407 
0.142824 
0.837637 
0.725247 
0.41738 
0.273171 
0.314708 
0.581696 
0.689358 
0.863868 
0.210859 
0.506752 
0.42505 
0.2397 
0.757523 
0.791912 
0.38588 
0.318054 
0.480925 
0.278506 
0.158036 
0.395408 
0.285456 
0.243051 
0.64252 
0.956924 
0.186336 
0.909517 
0.56874 
0.193516 
0.704238 
0.651579 
0.331897 
0.521569 
0.0247634 
0.0222729 
0.798524 
0.107812 
0.688807 
0.775026 
0.791494 
0.709469 
0.946538 
0.29802 
0.995821 
0.554447 
0.656088 
0.945349 
0.224637 
0.981518 
0.170622 
0.94106 
0.95696 
0.175015 
0.0543098 
0.268208 
0.54601 
0.775186 
0.603759 
0.316096 
0.433353 
0.842779 
0.626133 
0.272548 
0.514534 
0.888401 
0.174296 
0.820068 
0.181192 
0.0972637 
0.0313148 
0.0101759 
0.967447 
0.888038 
0.0496854 
0.670207 
0.976621 
0.220266 
0.0840586 
0.358865 
0.733183 
0.602144 
0.451371 
0.912804 
0.00317726 
0.51008 
0.144461 
0.50465 
0.568215 
0.64217 
0.206934 
0.340187 
0.327474 
0.614965 
0.59119 
0.687924 
0.166438 
0.652227 
0.768638 
0.395766 
0.396264 
0.69212 
0.237673 
0.948883 
0.135752 
0.511515 
0.0414308 
0.31241 
0.32177 
0.948322 
0.207341 
0.489343 
0.444675 
0.820848 
0.0174802 
0.788515 
0.54079 
0.0454764 
0.51385 
0.445624 
0.491365 
0.659889 
0.50537 
0.74186 
0.94385 
0.799325 
0.437726 
0.0903127 
0.933568 
0.378376 
0.758922 
0.803793 
0.804236 
0.595794 
0.324987 
0.748348 
0.476472 
0.515591 
0.480095 
0.424017 
0.176018 
0.280557 
0.877671 
0.873855 
0.489587 
0.606282 
0.717687 
0.140023 
0.583054 
0.195 
0.0633377 
0.0639017 
0.939866 
0.520184 
0.150116 
0.646592 
0.583782 
0.312334 
0.672144 
0.397056 
0.219516 
0.240821 
0.386376 
0.0335013 
0.346723 
0.552042 
0.55844 
0.0668148 
0.58194 
0.475858 
0.661935 
0.786098 
0.190028 
0.961509 
0.535061 
0.914518 
0.645664 
0.153469 
0.052182 
0.0150508 
0.196363 
0.527712 
0.147672 
0.0731337 
0.554839 
0.981283 
0.162861 
0.156598 
0.163671 
0.0784896 
0.718401 
0.446265 
0.510119 
0.605144 
0.883071 
0.121916 
0.290255 
0.062342 
0.143533 
0.0679654 
0.185087 
0.768677 
0.897677 
0.518272 
0.844632 
0.228757 
0.428373 
0.368291 
0.696048 
0.944381 
0.217886 
0.753004 
0.519839 
0.760075 
0.88087 
0.237478 
0.939694 
0.027152 
0.561514 
0.890452 
0.166991 
0.425243 
0.326896 
0.567591 
0.826987 
0.391682 
0.621351 
0.965152 
0.828471 
0.813402 
0.955095 
0.18312 
0.670428 
0.735596 
0.819551 
0.681018 
0.330059 
0.0346922 
0.120189 
0.283713 
0.838236 
0.901353 
0.449947 
0.988536 
0.0337888 
0.85945 
0.528557 
0.975459 
0.877222 
0.161335 
0.353375 
0.0580068 
0.444116 
0.441094 
0.326701 
0.914398 
0.494556 
0.710237 
0.664641 
0.831781 
0.258035 
0.769241 
0.410567 
0.0556567 
0.870649 
0.9723 
0.116976 
0.508313 
0.755566 
0.109987 
0.0338635 
0.441098 
0.129784 
0.971602 
0.940153 
0.93312 
0.983758 
0.693036 
0.702475 
0.371312 
0.0641059 
0.443452 
0.542987 
0.540162 
0.786284 
0.601409 
0.947014 
0.631218 
0.878837 
0.122686 
0.813548 
0.977604 
0.231243 
0.912736 
0.676368 
0.725066 
0.68579 
0.796719 
0.529627 
0.754639 
0.503554 
0.90704 
0.12361 
0.852225 
0.175046 
0.764166 
0.459332 
0.606064 
0.36404 
0.401945 
0.730075 
0.955128 
0.878799 
0.609732 
0.967766 
0.634138 
0.777265 
0.898504 
0.226566 
0.101267 
0.828259 
0.42447 
0.727096 
0.936748 
0.296532 
0.3122 
0.549696 
0.552582 
0.6404 
0.596649 
0.161175 
0.417908 
0.369055 
0.0802646 
0.236308 
0.99434 
0.909304 
0.790787 
0.135146 
0.550339 
0.0538383 
0.676553 
0.822281 
0.911402 
0.147205 
0.304862 
0.779872 
0.487228 
0.549174 
0.878217 
0.988291 
0.0191523 
0.351324 
0.534647 
0.747818 
0.970013 
0.695143 
0.273268 
0.951138 
0.907671 
0.457425 
0.733171 
0.55824 
0.993894 
0.3893 
0.881683 
0.89327 
0.386 
0.727551 
0.91265 
0.904127 
0.0814523 
0.0333416 
0.572409 
0.00929022 
0.198328 
0.0206801 
0.792271 
0.190829 
0.952083 
0.770226 
0.816574 
0.42605 
0.300218 
0.68029 
0.858516 
0.871793 
0.897062 
0.843587 
0.485151 
0.488541 
0.065334 
0.456981 
0.595555 
0.110083 
0.343784 
0.264065 
0.58018 
0.435391 
0.4151 
0.054213 
0.259696 
0.244178 
0.709095 
0.658851 
0.119181 
0.129219 
0.0779686 
0.73524 
0.55615 
0.834371 
0.106124 
0.256561 
0.054124 
0.656554 
0.277437 
0.70913 
0.130296 
0.523997 
0.0458901 
0.101306 
0.468935 
0.710646 
0.601346 
0.204917 
0.618787 
0.69915 
0.314829 
0.804789 
0.178022 
0.241306 
0.59473 
0.868233 
0.818668 
0.590084 
0.00228784 
0.944532 
0.792477 
0.399328 
0.873449 
0.674396 
0.242366 
0.168445 
0.861125 
0.326641 
0.325152 
0.400173 
0.763506 
0.164068 
0.68829 
0.643317 
0.821354 
0.378547 
0.111901 
0.859483 
0.713183 
0.57501 
0.741138 
0.753671 
0.555088 
0.800912 
0.670346 
0.535107 
0.685926 
0.955184 
0.627752 
0.819132 
0.188965 
0.751475 
0.22158 
0.41645 
0.790874 
0.399962 
0.0451092 
0.201045 
0.0428628 
0.639163 
0.251759 
0.419884 
0.171836 
0.884456 
0.341014 
0.205124 
0.795387 
0.02447 
0.0397795 
0.529819 
0.933367 
0.602215 
0.601177 
0.643866 
0.921931 
0.219257 
0.884904 
0.048822 
0.81204 
0.0325918 
0.415042 
0.594667 
0.196795 
0.796091 
0.210988 
0.174414 
0.613842 
0.941056 
0.661565 
0.214898 
0.91359 
0.380197 
0.0349823 
0.227345 
0.906887 
0.868988 
0.582469 
0.560786 
0.00108863 
0.126862 
0.214641 
0.82682 
0.387614 
0.318075 
0.261779 
0.296524 
0.428178 
0.192406 
0.567478 
0.657666 
0.685579 
0.35374 
0.956791 
0.243739 
0.748272 
0.390228 
0.844757 
0.371984 
0.707606 
0.345655 
0.877158 
0.750528 
0.434425 
0.400661 
0.372938 
0.44325 
0.380307 
0.0727124 
0.440281 
0.606527 
0.304784 
0.406644 
0.101012 
0.47688 
0.29241 
0.0162826 
0.884416 
0.210311 
0.683644 
0.15439 
0.974316 
0.502662 
0.891408 
0.726491 
0.49718 
0.607214 
0.349289 
0.526215 
0.796915 
0.273676 
0.292684 
0.348152 
0.875973 
0.0933192 
0.20668 
0.302759 
0.351522 
0.726748 
0.886325 
0.0519262 
0.0785592 
0.0144861 
0.19334 
0.0262893 
0.468766 
0.243383 
0.919917 
0.715834 
0.488646 
0.0780743 
0.530066 
0.66605 
0.607713 
0.419551 
0.110798 
0.816614 
0.249305 
0.509178 
0.804133 
0.50983 
0.3027 
0.861927 
0.0573943 
0.730757 
0.90088 
0.464043 
0.469364 
0.153814 
0.961795 
0.876255 
0.488629 
0.407077 
0.126576 
0.925425 
0.00558112 
0.186388 
0.324061 
0.0501866 
0.144537 
0.729369 
0.48228 
0.338065 
0.236767 
0.450863 
0.185451 
0.324255 
0.263971 
0.830077 
0.69636 
0.333537 
0.580232 
0.287838 
0.263971 
0.259901 
0.67708 
0.519827 
0.0767537 
0.0558453 
0.258728 
0.439927 
0.284289 
0.678768 
0.94958 
0.773955 
0.636139 
0.753581 
0.746817 
0.586031 
0.773056 
0.392488 
0.60529 
0.247433 
0.290202 
0.0193326 
0.34731 
0.141796 
0.411535 
0.153068 
0.829009 
0.7392 
0.0988703 
0.820633 
0.227112 
0.106941 
0.662776 
0.954576 
0.814564 
0.623253 
0.328269 
0.277368 
0.434377 
0.350296 
0.877759 
0.00615449 
0.696449 
0.338063 
0.304984 
0.648101 
0.921146 
0.893074 
0.997179 
0.0728839 
0.129619 
0.981568 
0.0902423 
0.686159 
0.928965 
0.141816 
0.884416 
0.019762 
0.342686 
0.238306 
0.984564 
0.846598 
0.794512 
0.900278 
0.780105 
0.836511 
0.321093 
0.742746 
0.664494 
0.289184 
0.337372 
0.908637 
0.032251 
0.696358 
0.20877 
0.824149 
0.218232 
0.0996423 
0.619506 
0.103815 
0.799062 
0.902925 
0.312513 
0.281589 
0.00678194 
0.495872 
0.988482 
0.737941 
0.31072 
0.600408 
0.78168 
0.111533 
0.579329 
0.870371 
0.689776 
0.24297 
0.342722 
0.54544 
0.0675727 
0.410448 
0.237511 
0.488974 
0.806067 
0.377848 
0.517978 
0.0945979 
0.909095 
0.207631 
0.382065 
0.66028 
0.758373 
0.173069 
0.51738 
0.995338 
0.707609 
0.0805673 
0.0433081 
0.491156 
0.446596 
0.486799 
0.165891 
0.360657 
0.880722 
0.744352 
0.416771 
0.907355 
0.0943069 
0.181326 
0.946587 
0.100849 
0.388038 
0.289225 
0.0730869 
0.194608 
0.417485 
0.292927 
0.702139 
0.239713 
0.959483 
0.305462 
0.154915 
0.555508 
0.790544 
0.443872 
0.995819 
0.436587 
0.304441 
0.24651 
0.960825 
0.222881 
0.395609 
0.224525 
0.270025 
0.418441 
0.997736 
0.91103 
0.550427 
0.596336 
0.0791452 
0.576636 
0.898172 
0.463311 
0.398396 
0.104461 
0.652236 
0.9917 
0.678073 
0.428478 
0.654801 
0.588746 
0.745055 
0.64087 
0.503676 
0.938041 
0.605344 
0.638924 
0.702657 
0.860949 
0.379662 
0.712123 
0.52352 
0.363489 
0.434676 
0.687598 
0.226851 
0.979004 
0.975671 
0.289514 
0.338433 
0.996445 
0.788971 
0.794922 
0.632369 
0.811451 
0.448093 
0.830614 
0.126663 
0.513268 
0.715931 
0.248146 
0.5319 
0.38221 
0.801761 
0.670861 
0.982859 
0.936821 
0.576272 
0.0801862 
0.413825 
0.180845 
0.995631 
0.520386 
0.885283 
0.648252 
0.466254 
0.0952809 
0.967821 
0.620111 
0.156003 
0.398367 
0.882505 
0.539014 
0.543676 
0.442453 
0.183745 
0.249231 
0.285112 
0.52951 
0.559837 
0.415146 
0.90568 
0.305143 
0.64977 
0.288782 
0.255251 
0.358183 
0.805918 
0.538927 
0.590064 
0.231142 
0.101946 
0.644644 
0.980139 
0.101722 
0.187866 
0.00938536 
0.838303 
0.481342 
0.46853 
0.90855 
0.417147 
0.544138 
0.699009 
0.0790503 
0.509416 
0.486898 
0.85588 
0.614405 
0.117415 
0.606873 
0.16418 
0.399026 
0.532357 
0.875211 
0.659039 
0.787626 
0.126025 
0.524974 
0.89948 
0.109084 
0.634571 
0.080846 
0.411232 
0.712634 
0.100422 
0.809947 
0.637809 
0.898069 
0.621821 
0.414607 
0.647558 
0.489269 
0.0937553 
0.637323 
0.950262 
0.476376 
0.602805 
0.591483 
0.225262 
0.668433 
0.156552 
0.774251 
0.213053 
0.169124 
0.725753 
0.256189 
0.162767 
0.625777 
0.250747 
0.262978 
0.843928 
0.397421 
0.104579 
0.193854 
0.36307 
0.874534 
0.59977 
0.258113 
0.358428 
0.88754 
0.900531 
0.447952 
0.268851 
0.553815 
0.178848 
0.859702 
0.231976 
0.168105 
0.0267229 
0.322431 
0.555165 
0.824529 
0.804248 
0.0244082 
0.371506 
0.49187 
0.466052 
0.0417138 
0.617002 
0.578033 
0.298809 
0.435666 
0.136633 
0.299721 
0.761375 
0.0353025 
0.2695 
0.996269 
0.446946 
0.152785 
0.886228 
0.0313804 
0.116035 
0.250855 
0.759675 
0.89831 
0.22342 
0.673299 
0.818786 
0.94893 
0.874315 
0.393736 
0.936962 
0.436896 
0.162523 
0.309821 
0.681109 
0.934055 
0.947389 
0.599083 
0.948874 
0.404018 
0.0410324 
0.293826 
0.0319395 
0.864513 
0.432546 
0.0928085 
0.137792 
0.241971 
0.223009 
0.86774 
0.764177 
0.344714 
0.38478 
0.594865 
0.535121 
0.333556 
0.854683 
0.265644 
0.93394 
0.389834 
0.683065 
0.27501 
0.0279577 
0.940613 
0.53397 
0.671173 
0.607535 
0.750873 
0.981322 
0.72767 
0.857321 
0.991843 
0.75946 
0.146041 
0.326305 
0.0287861 
0.694551 
0.958757 
0.729047 
0.736754 
0.174611 
0.35541 
0.574649 
0.459945 
0.833725 
0.815444 
0.323952 
0.461684 
0.673959 
0.595226 
0.134387 
0.0194918 
0.125108 
0.223276 
0.449137 
0.534532 
0.99039 
0.717347 
0.980057 
0.0537378 
0.636874 
0.960382 
0.269923 
0.949407 
0.902234 
0.194648 
0.733952 
0.174861 
0.105141 
0.314113 
0.348766 
0.398962 
0.283917 
0.313912 
0.71828 
0.944647 
0.0877888 
0.279534 
0.596159 
0.828435 
0.782153 
0.557239 
0.0362764 
0.669372 
0.848988 
0.0654646 
0.360766 
0.258051 
0.432597 
0.306071 
0.966589 
0.129933 
0.217436 
0.893394 
0.621706 
0.398162 
0.356089 
0.646573 
0.733091 
0.731701 
0.958176 
0.0459545 
0.424361 
0.00901746 
0.703805 
0.780892 
0.56484 
0.0232952 
0.00756392 
0.988969 
0.201647 
0.823338 
0.36095 
0.461253 
0.110045 
0.781262 
0.453444 
0.297102 
0.3584 
0.482436 
0.431225 
0.698823 
0.675066 
0.00687099 
0.0789897 
0.460627 
0.777536 
0.816764 
0.631388 
0.364876 
0.887498 
0.250927 
0.066119 
0.727151 
0.766798 
0.898326 
0.766825 
0.946883 
0.535733 
0.959781 
0.978188 
0.5221 
0.84536 
0.898027 
0.931229 
0.45764 
0.759162 
0.938796 
0.810701 
0.930392 
0.446957 
0.833886 
0.987781 
0.369639 
0.170767 
0.823165 
0.587057 
0.961612 
0.489129 
0.253523 
0.678224 
0.914492 
0.617075 
0.322499 
0.490512 
0.407455 
0.0839396 
0.59196 
0.879015 
0.553308 
0.299471 
0.897008 
0.794306 
0.775812 
0.598968 
0.557221 
0.299708 
0.547657 
0.99183 
0.483413 
0.684774 
0.480017 
0.746521 
0.211422 
0.248487 
0.0978391 
0.70867 
0.855746 
0.789034 
0.742843 
0.104522 
0.520875 
0.846632 
0.843613 
0.377747 
0.272095 
0.125304 
0.691353 
0.555131 
0.00847423 
0.416032 
0.439118 
0.784361 
0.829997 
0.589606 
0.142074 
0.593313 
0.726193 
0.42838 
0.210792 
0.265384 
0.993184 
0.480756 
0.82775 
0.603238 
0.817842 
0.955547 
0.650378 
0.627647 
0.646563 
0.0621331 
0.938197 
0.898716 
0.694859 
0.310406 
0.343546 
0.0762294 
0.519837 
0.608777 
0.72716 
7.39336e-05 
0.169766 
0.463291 
0.361852 
0.952066 
0.932193 
0.958069 
0.206538 
0.159701 
0.571761 
0.592919 
0.698611 
0.305813 
0.393851 
0.336886 
0.128993 
0.0869364 
0.548943 
0.317733 
0.992748 
0.723565 
0.572101 
0.717227 
0.976559 
0.426991 
0.913014 
0.897311 
0.835229 
0.0479582 
0.359281 
0.295754 
0.629126 
0.136184 
0.374046 
0.864782 
0.250274 
0.0295056 
0.999449 
0.605143 
0.244195 
0.438195 
0.735094 
0.557989 
0.438339 
0.603542 
0.180999 
0.808786 
0.819058 
0.487236 
0.75505 
0.404373 
0.725676 
0.154009 
0.509073 
0.668036 
0.152576 
0.062696 
0.337115 
0.445944 
0.757648 
0.130534 
0.901512 
0.220338 
0.378551 
0.422756 
0.972686 
0.177016 
0.882277 
0.551257 
0.321492 
0.899846 
0.542112 
0.462889 
0.807975 
0.360818 
0.971003 
0.555517 
0.76982 
0.680121 
0.2052 
0.834623 
0.865467 
0.0415208 
0.614193 
0.27328 
0.746707 
0.487872 
0.792375 
0.524463 
0.597512 
0.22003 
0.364019 
0.297242 
0.851617 
0.97369 
0.623622 
0.892279 
0.980903 
0.646979 
0.798819 
0.404874 
0.482364 
0.0638924 
0.802929 
0.351071 
0.849272 
0.991807 
0.484324 
0.356365 
0.0543711 
0.914077 
0.704969 
0.438084 
0.968109 
0.723821 
0.656803 
0.514772 
0.877056 
0.0601742 
0.471478 
0.311017 
0.194693 
0.15105 
0.90142 
0.0706583 
0.958388 
0.69989 
0.0120097 
0.0048804 
0.853291 
0.467288 
0.836719 
0.220625 
0.805961 
0.248579 
0.998273 
0.937898 
0.553956 
0.912697 
0.63549 
0.780096 
0.567218 
0.191762 
0.906248 
0.514856 
0.998976 
0.377329 
0.206112 
0.729947 
0.313436 
0.117581 
0.888606 
0.693123 
0.9399 
0.417167 
0.815771 
0.804843 
0.360404 
0.913814 
0.288316 
0.165002 
0.455863 
0.242817 
0.00192205 
0.615343 
0.661228 
0.660336 
0.680475 
0.85065 
0.0373145 
0.680775 
0.571138 
0.690215 
0.895566 
0.266862 
0.0685546 
0.313601 
0.78918 
0.49834 
0.437033 
0.168406 
0.264563 
0.683882 
0.816637 
0.705521 
0.576539 
0.994062 
0.461193 
0.493353 
0.27396 
0.655103 
0.407057 
0.299963 
0.605436 
0.791173 
0.970894 
0.773384 
0.599982 
0.449069 
0.153473 
0.211233 
0.700349 
0.956182 
0.635469 
0.891271 
0.216285 
0.683544 
0.315059 
0.0253866 
0.820249 
0.432669 
0.0887066 
0.935084 
0.390777 
0.587932 
0.239836 
0.653565 
0.366532 
0.48125 
0.401686 
0.333798 
0.267585 
0.767843 
0.240382 
0.961277 
0.923551 
0.274247 
0.223279 
0.252124 
0.246993 
0.239576 
0.428251 
0.825926 
0.617186 
0.193874 
0.808081 
0.985634 
0.148602 
0.853031 
0.238602 
0.416941 
0.3224 
0.434039 
0.327424 
0.0989688 
0.671174 
0.0493587 
0.200996 
0.499137 
0.275419 
0.419604 
0.596993 
0.0491449 
0.886679 
0.858299 
0.0850616 
0.177417 
0.0133985 
0.589985 
0.707862 
0.758923 
0.213971 
0.966167 
0.484389 
0.0624681 
0.178459 
0.338263 
0.880482 
0.0427205 
0.355407 
0.640739 
0.827884 
0.044623 
0.790826 
0.0511507 
0.296426 
0.272142 
0.913454 
0.605467 
0.502217 
0.7366 
0.112123 
0.88449 
0.529551 
0.00549392 
0.162868 
0.262326 
0.0388698 
0.682064 
0.0281965 
0.499949 
0.480695 
0.278529 
0.590492 
0.287416 
0.919946 
0.00606384 
0.56453 
0.368692 
0.371361 
0.0211943 
0.687251 
0.554564 
0.765436 
0.791339 
0.246561 
0.199807 
0.366939 
0.719572 
0.125365 
0.429894 
0.0163535 
0.0710202 
0.710306 
0.802948 
0.910197 
0.912124 
0.629536 
0.131494 
0.0621365 
0.777544 
0.74215 
0.625929 
0.729097 
0.203014 
0.794995 
0.974571 
0.420144 
0.245721 
0.480122 
0.668972 
0.852376 
0.945323 
0.128732 
0.696645 
0.0800841 
0.103563 
0.131198 
0.515055 
0.481781 
0.445883 
0.798177 
0.528938 
0.668844 
0.483338 
0.332687 
0.258802 
0.973703 
0.26436 
0.789941 
0.497069 
0.320785 
0.616283 
0.00689415 
0.0629337 
0.920025 
0.906164 
0.831537 
0.913675 
0.679158 
0.777059 
0.693668 
0.198856 
0.452388 
0.788887 
0.00192455 
0.555578 
0.433248 
0.0584159 
0.44196 
0.839594 
0.618257 
0.741594 
0.935637 
0.32531 
0.745991 
0.872898 
0.433286 
0.52156 
0.652659 
0.469011 
0.183299 
0.226002 
0.411955 
0.0152917 
0.75067 
0.0621234 
0.431684 
0.542779 
0.610149 
0.436234 
0.0810686 
0.283957 
0.0732268 
0.729978 
0.346375 
0.652205 
0.481757 
0.382594 
0.326886 
0.10304 
0.370412 
0.377442 
0.481798 
0.79562 
0.691394 
0.84979 
0.512283 
0.855033 
0.465442 
0.264849 
0.629484 
0.562734 
0.541156 
0.393311 
0.420462 
0.137122 
0.292178 
0.00732321 
0.932701 
0.609259 
0.891846 
0.420825 
0.400181 
0.553934 
0.596259 
0.506279 
0.58721 
0.132822 
0.761598 
0.651143 
0.35109 
0.312596 
0.274251 
0.149531 
0.334346 
0.833034 
0.233576 
0.069241 
0.494727 
0.122151 
0.402621 
0.0912142 
0.720548 
0.342343 
0.566305 
0.654512 
0.652501 
0.700857 
0.301104 
0.0854638 
0.633436 
0.266435 
0.894252 
0.300269 
0.715057 
0.330352 
0.364873 
0.592348 
0.905185 
0.264529 
0.949826 
0.738729 
0.00446115 
0.850737 
0.695572 
0.562432 
0.337716 
0.332799 
0.0773228 
0.458301 
0.65719 
0.571954 
0.402109 
0.934701 
0.360534 
0.947714 
0.0301236 
0.441097 
0.700709 
0.702993 
0.510167 
0.612244 
0.746369 
0.801436 
0.336725 
0.564093 
0.855266 
0.589159 
0.508241 
0.853431 
0.683798 
0.106338 
0.501957 
0.0191667 
0.442609 
0.907175 
0.0446696 
0.945191 
0.18038 
0.369908 
0.205239 
0.0955858 
0.432741 
0.277561 
0.100858 
0.49892 
0.239034 
0.349601 
0.558262 
0.548067 
0.421274 
0.3855 
0.380664 
0.280728 
0.179912 
0.127284 
0.0156902 
0.753088 
0.504955 
0.72211 
0.761101 
0.268949 
0.193622 
0.0641488 
0.425374 
0.702147 
0.977321 
0.551583 
0.0438068 
0.582149 
0.278376 
0.542194 
0.443321 
0.117205 
0.379941 
0.764833 
0.918368 
0.692699 
0.970624 
0.126165 
0.646414 
0.38685 
0.562345 
0.198351 
0.393926 
0.340242 
0.356478 
0.37304 
0.115364 
0.50121 
0.816913 
0.343507 
0.498536 
0.118024 
0.575517 
0.515464 
0.355277 
0.863349 
0.344015 
0.456881 
0.238089 
0.771163 
0.273405 
0.525002 
0.531113 
0.873384 
0.937613 
0.0487175 
0.978845 
0.632326 
0.0726338 
0.211824 
0.359887 
0.426681 
0.758145 
0.915751 
0.62974 
0.955909 
0.755118 
0.526111 
0.850111 
0.816031 
0.13213 
0.760724 
0.617232 
0.397647 
0.841272 
0.0383197 
0.0962059 
0.948102 
0.396016 
0.532262 
0.903642 
0.340035 
0.663896 
0.727361 
0.223014 
0.555454 
0.455233 
0.610265 
0.54399 
0.518356 
0.286048 
0.879016 
0.936543 
0.806209 
0.969085 
0.524235 
0.112869 
0.650234 
0.190886 
0.856936 
0.942853 
0.103447 
0.296439 
0.799034 
0.441715 
0.492521 
0.0295162 
0.572643 
0.572462 
0.741691 
0.0766056 
0.787166 
0.193495 
0.530928 
0.92413 
0.986056 
0.975293 
0.304769 
0.753638 
0.206355 
0.861381 
0.657844 
0.102206 
0.580465 
0.963488 
0.844873 
0.753107 
0.70305 
0.246624 
0.0399415 
0.462113 
0.117374 
0.16162 
0.419756 
0.666115 
0.973154 
0.27965 
0.531393 
0.930693 
0.166662 
0.78925 
0.102965 
0.883623 
0.522238 
0.974126 
0.756104 
0.72257 
0.00260119 
0.205614 
0.260369 
0.0799547 
0.735328 
0.822651 
0.343391 
0.136138 
0.665889 
0.830441 
0.673621 
0.139459 
0.378827 
0.678363 
0.515925 
0.978055 
0.267725 
0.866911 
0.373755 
0.13663 
0.0826915 
0.738824 
0.372068 
0.380516 
0.302174 
0.294525 
0.259814 
0.463475 
0.987852 
0.385076 
0.943234 
0.167001 
0.925004 
0.754337 
0.856599 
0.602387 
0.107367 
0.455472 
0.65459 
0.0575331 
0.0212629 
0.289802 
0.931479 
0.514019 
0.875298 
0.3781 
0.884512 
0.534774 
0.892603 
0.102763 
0.212046 
0.701606 
0.361351 
0.00139571 
0.384308 
0.320143 
0.393345 
0.181251 
0.209377 
0.593725 
0.594466 
0.17247 
0.933002 
0.0562168 
0.201724 
0.508252 
0.759215 
0.146052 
0.931073 
0.421948 
0.0564987 
0.6742 
0.279809 
0.780087 
0.962841 
0.688245 
0.498423 
0.0990325 
0.287751 
0.538112 
0.0113301 
0.282843 
0.589571 
0.172048 
0.170098 
0.676343 
0.569594 
0.551671 
0.967441 
0.628422 
0.32455 
0.521016 
0.864937 
0.994108 
0.838488 
0.347397 
0.74941 
0.939413 
0.668082 
0.481203 
0.286163 
0.595156 
0.336407 
0.959551 
0.442075 
0.961996 
0.676384 
0.706078 
0.957693 
0.939877 
0.833758 
0.155241 
0.830432 
0.46414 
0.298688 
0.523305 
0.83163 
0.539132 
0.259832 
0.354038 
0.186738 
0.350657 
0.189719 
0.835691 
0.384151 
0.00949972 
0.309025 
0.836747 
0.281337 
0.781343 
0.531514 
0.153915 
0.525254 
0.28324 
0.714866 
0.734389 
0.449636 
0.182077 
0.13554 
0.272772 
0.635644 
0.806188 
0.667877 
0.286589 
0.142442 
0.245875 
0.691897 
0.0717468 
0.498661 
0.985998 
0.904901 
0.575208 
0.766517 
0.746767 
0.695331 
0.677317 
0.2824 
0.581868 
0.618872 
0.81424 
0.0159871 
0.214353 
0.987867 
0.817337 
0.632082 
0.682147 
0.808217 
0.279662 
0.664969 
0.0293241 
0.54438 
0.52897 
0.873164 
0.187608 
0.931461 
0.976352 
0.331204 
0.623709 
0.527061 
0.459082 
0.358566 
0.33427 
0.0831952 
0.390402 
0.239344 
0.486272 
0.700094 
0.13727 
0.826467 
0.930053 
0.828731 
0.484953 
0.659769 
0.456401 
0.418462 
0.0342963 
0.926848 
0.0433801 
0.47606 
0.385748 
0.534058 
0.998168 
0.902474 
0.0147555 
0.780515 
0.485289 
0.39022 
0.82309 
0.874418 
0.998356 
0.195661 
0.869969 
0.307492 
0.411236 
0.81634 
0.368255 
0.426215 
0.0912168 
0.667498 
0.731308 
0.300818 
0.337997 
0.734322 
0.985457 
0.698771 
0.0899318 
0.470738 
0.635363 
0.525269 
0.141339 
0.275515 
0.987103 
0.794998 
0.933335 
0.348373 
0.209133 
0.680366 
0.355424 
0.438373 
0.908778 
0.83359 
0.391384 
0.733979 
0.29066 
0.292137 
0.296796 
0.0248424 
0.917842 
0.68603 
0.234278 
0.497353 
0.790582 
0.380233 
0.218583 
0.722665 
0.772833 
0.693283 
0.619675 
0.762303 
0.51148 
0.329405 
0.00134406 
0.580644 
0.171838 
0.194907 
0.150322 
0.50542 
0.0173869 
0.471208 
0.0460775 
0.442265 
0.163559 
0.5721 
0.81832 
0.085342 
0.232836 
0.246046 
0.351934 
0.409084 
0.114243 
0.407215 
0.675931 
0.543024 
0.35713 
0.661593 
0.678703 
0.13156 
0.43962 
0.937196 
0.570224 
0.577639 
0.764602 
0.246952 
0.693855 
0.294863 
0.570701 
0.634804 
0.398891 
0.248884 
0.935332 
0.448902 
0.531784 
0.634839 
0.66812 
0.439013 
0.172989 
0.694384 
0.924926 
0.370606 
0.638788 
0.889679 
0.482942 
0.629818 
0.465017 
0.109173 
0.113116 
0.107892 
0.445731 
0.938845 
0.633814 
0.929669 
0.0628763 
0.306939 
0.949764 
0.0103644 
0.167828 
0.755272 
0.833822 
0.60586 
0.517917 
0.942858 
0.741206 
0.701079 
0.744718 
0.873826 
0.964121 
0.981917 
0.918633 
0.28348 
0.0586256 
0.820995 
0.179522 
0.0349313 
0.771327 
0.540526 
0.33154 
0.578217 
0.854507 
0.642375 
0.420104 
0.545913 
0.182298 
0.236274 
0.205414 
0.259686 
0.942632 
0.64157 
0.829063 
0.388762 
0.168412 
0.740118 
0.872796 
0.355525 
0.178829 
0.996424 
0.959128 
0.155996 
0.928936 
0.424574 
0.223084 
0.136395 
0.260176 
0.544465 
0.0822084 
0.598127 
0.0291862 
0.454909 
0.332499 
0.943673 
0.303102 
0.428224 
0.661034 
0.381088 
0.136171 
0.0966266 
0.305162 
0.823884 
0.627253 
0.205933 
0.980185 
0.437774 
0.835196 
0.53918 
0.0251269 
0.00682428 
0.786086 
0.447393 
0.288737 
0.86318 
0.656228 
0.284694 
0.644566 
0.263581 
0.174779 
0.36862 
0.537542 
0.926407 
0.749121 
0.147735 
0.00288775 
0.127014 
0.916921 
0.672122 
0.11379 
0.960227 
0.119383 
0.492416 
0.361313 
0.47 
0.0587798 
0.330012 
0.26452 
0.245918 
0.947676 
0.032442 
0.906151 
0.368498 
0.66254 
0.953625 
0.0941285 
0.685316 
0.41244 
0.111789 
0.491835 
0.461552 
0.877058 
0.660239 
0.277965 
0.657168 
0.645415 
0.897224 
0.882337 
0.335172 
0.427002 
0.803765 
0.923094 
0.866724 
0.49965 
0.584483 
0.924757 
0.166117 
0.37436 
0.259408 
0.830481 
0.0701767 
0.28103 
0.555045 
0.618967 
0.409787 
0.258428 
0.416746 
0.382056 
0.0963341 
0.131284 
0.609898 
0.656194 
0.840995 
0.499818 
0.307198 
0.169764 
0.0487654 
0.225817 
0.366971 
0.567846 
0.569715 
0.778776 
0.590242 
0.110663 
0.640678 
0.0720193 
0.365846 
0.287303 
0.741438 
0.0669874 
0.757166 
0.240713 
0.23091 
0.0119884 
0.132475 
0.209387 
0.214183 
0.905794 
0.277773 
0.097102 
0.782822 
0.667521 
0.612673 
0.343792 
0.690339 
0.233559 
0.308029 
0.357301 
0.216698 
0.67728 
0.736015 
0.0100186 
0.355914 
0.239955 
0.927609 
0.762987 
0.379387 
0.685956 
0.698873 
0.590398 
0.962056 
0.781346 
0.538427 
0.0941383 
0.886009 
0.257495 
0.463507 
0.330798 
0.756773 
0.802849 
0.803118 
0.876637 
0.0874741 
0.667914 
0.502422 
0.335562 
0.588561 
0.351933 
0.206718 
0.262155 
0.0986493 
0.150063 
0.321019 
0.594389 
0.153738 
0.0626256 
0.00778223 
0.77426 
0.682045 
0.120503 
0.719253 
0.161854 
0.12016 
0.681152 
0.144827 
0.0578278 
0.134942 
0.0147804 
0.189117 
0.0708621 
0.0378598 
0.30787 
0.515736 
0.393511 
0.995196 
0.4396 
0.15144 
0.778051 
0.741173 
0.0876437 
0.470426 
0.29283 
0.406851 
0.430237 
0.871262 
0.70725 
0.0142973 
0.0245837 
0.236994 
0.598265 
0.926198 
0.334413 
0.443033 
0.0991381 
0.715151 
0.721638 
0.782471 
0.942045 
0.0475685 
0.80035 
0.466788 
0.27914 
0.0447211 
0.787551 
0.899124 
0.775684 
0.83745 
0.344421 
0.191193 
0.378439 
0.256334 
0.0214632 
0.293279 
0.240423 
0.202589 
0.348221 
0.53715 
0.124314 
0.192738 
0.48862 
0.40701 
0.734919 
0.299905 
0.807136 
0.913665 
0.765108 
0.334212 
0.719338 
0.0335932 
0.615624 
0.112185 
0.0506022 
0.0552102 
0.0262196 
0.955436 
0.525214 
0.756254 
0.589818 
0.738906 
0.319417 
0.84813 
0.493647 
0.114835 
0.812272 
0.666829 
0.381783 
0.718809 
0.418628 
0.0559327 
0.585 
0.298828 
0.409563 
0.58609 
0.315622 
0.147358 
0.991529 
0.107493 
0.334257 
0.037959 
0.922407 
0.373142 
0.989161 
0.543456 
0.563317 
0.187899 
0.215496 
0.485307 
0.219501 
0.936873 
0.277625 
0.953104 
0.814933 
0.349599 
0.021606 
0.341013 
0.384398 
0.0932896 
0.969253 
0.190045 
0.16462 
0.507031 
0.508238 
0.0514782 
0.367012 
0.584797 
0.994751 
0.435132 
0.695998 
0.0164755 
0.15254 
0.899539 
0.0463763 
0.029327 
0.574444 
0.340404 
0.219301 
0.903991 
0.683088 
0.371648 
0.401118 
0.20497 
0.237699 
0.884361 
0.921243 
0.781649 
0.241916 
0.583596 
0.201856 
0.127068 
0.687669 
0.910739 
0.75094 
0.822909 
0.225121 
0.386746 
0.418688 
0.935786 
0.105555 
0.531289 
0.621192 
0.280342 
0.197763 
0.408387 
0.362605 
0.161901 
0.893525 
0.440476 
0.67031 
0.210427 
0.471146 
0.0499138 
0.495932 
0.269721 
0.684174 
0.747996 
0.391641 
