1 
1 
1 
1 
1 
1 
1 
1 
1 
1 
0.999999 
0.999999 
0.999999 
0.999998 
0.999997 
0.999996 
0.999995 
0.999994 
0.999993 
0.999991 
0.999989 
0.999986 
0.999984 
0.99998 
0.999977 
0.999973 
0.999968 
0.999963 
0.999957 
0.99995 
0.999943 
0.999935 
0.999926 
0.999917 
0.999906 
0.999895 
0.999882 
0.999868 
0.999854 
0.999838 
0.99982 
0.999802 
0.999782 
0.99976 
0.999737 
0.999712 
0.999686 
0.999658 
0.999627 
0.999595 
0.999561 
0.999525 
0.999487 
0.999446 
0.999403 
0.999358 
0.99931 
0.999259 
0.999206 
0.99915 
0.999091 
0.999028 
0.998963 
0.998895 
0.998823 
0.998748 
0.998669 
0.998586 
0.9985 
0.99841 
0.998316 
0.998217 
0.998115 
0.998008 
0.997897 
0.997781 
0.99766 
0.997535 
0.997404 
0.997268 
0.997128 
0.996981 
0.99683 
0.996672 
0.996509 
0.99634 
0.996165 
0.995984 
0.995796 
0.995602 
0.995402 
0.995194 
0.99498 
0.994758 
0.99453 
0.994294 
0.99405 
0.993799 
0.99354 
0.993272 
0.992997 
0.992713 
0.992421 
0.99212 
0.991811 
0.991492 
0.991164 
0.990827 
0.990481 
0.990124 
0.989758 
0.989382 
0.988996 
0.988599 
0.988191 
0.987773 
0.987344 
0.986904 
0.986453 
0.98599 
0.985515 
0.985029 
0.98453 
0.98402 
0.983496 
0.982961 
0.982412 
0.98185 
0.981276 
0.980688 
0.980086 
0.97947 
0.978841 
0.978197 
0.977539 
0.976866 
0.976178 
0.975476 
0.974758 
0.974025 
0.973276 
0.972511 
0.971731 
0.970934 
0.970121 
0.969291 
0.968444 
0.96758 
0.966699 
0.9658 
0.964884 
0.963949 
0.962997 
0.962026 
0.961037 
0.960029 
0.959002 
0.957955 
0.95689 
0.955804 
0.954699 
0.953574 
0.952429 
0.951263 
0.950076 
0.948869 
0.94764 
0.94639 
0.945119 
0.943826 
0.942511 
0.941173 
0.939814 
0.938432 
0.937027 
0.935599 
0.934147 
0.932673 
0.931174 
0.929652 
0.928106 
0.926536 
0.924941 
0.923322 
0.921677 
0.920008 
0.918313 
0.916593 
0.914848 
0.913076 
0.911279 
0.909455 
0.907605 
0.905729 
0.903825 
0.901895 
0.899938 
0.897953 
0.895941 
0.893901 
0.891833 
0.889737 
0.887613 
0.885461 
0.88328 
0.881071 
0.878832 
0.876565 
0.874268 
0.871943 
0.869587 
0.867203 
0.864788 
0.862344 
0.859869 
0.857365 
0.85483 
0.852265 
0.849669 
0.847043 
0.844386 
0.841698 
0.838979 
0.836228 
0.833447 
0.830635 
0.827791 
0.824916 
0.822009 
0.81907 
0.8161 
0.813098 
0.810064 
0.806999 
0.803901 
0.800771 
0.79761 
0.794416 
0.79119 
0.787932 
0.784642 
0.78132 
0.777965 
0.774578 
0.771159 
0.767708 
0.764225 
0.760709 
0.757162 
0.753582 
0.74997 
0.746326 
0.74265 
0.738942 
0.735202 
0.73143 
0.727627 
0.723792 
0.719925 
0.716027 
0.712097 
0.708136 
0.704144 
0.700121 
0.696067 
0.691983 
0.687867 
0.683721 
0.679545 
0.675339 
0.671103 
0.666837 
0.662542 
0.658217 
0.653863 
0.64948 
0.645069 
0.640629 
0.63616 
0.631664 
0.62714 
0.622589 
0.618011 
0.613406 
0.608774 
0.604116 
0.599433 
0.594723 
0.589989 
0.585229 
0.580446 
0.575637 
0.570806 
0.565951 
0.561072 
0.556172 
0.551249 
0.546304 
0.541339 
0.536352 
0.531345 
0.526318 
0.521272 
0.516207 
0.511123 
0.506022 
0.500903 
0.495767 
0.490615 
0.485447 
0.480264 
0.475067 
0.469855 
0.46463 
0.459392 
0.454142 
0.44888 
0.443608 
0.438325 
0.433032 
0.427731 
0.422421 
0.417104 
0.41178 
0.406449 
0.401113 
0.395773 
0.390429 
0.385081 
0.379731 
0.374379 
0.369027 
0.363674 
0.358323 
0.352972 
0.347625 
0.34228 
0.336939 
0.331604 
0.326274 
0.320951 
0.315636 
0.310329 
0.305032 
0.299744 
0.294469 
0.289205 
0.283954 
0.278718 
0.273497 
0.268291 
0.263103 
0.257933 
0.252782 
0.24765 
0.24254 
0.237452 
0.232387 
0.227347 
0.222331 
0.217342 
0.21238 
0.207446 
0.202542 
0.197668 
0.192826 
0.188017 
0.183242 
0.178501 
0.173797 
0.16913 
0.164501 
0.159911 
0.155363 
0.150855 
0.146391 
0.141971 
0.137596 
0.133267 
0.128985 
0.124753 
0.12057 
0.116438 
0.112358 
0.108331 
0.104359 
0.100442 
0.0965826 
0.0927808 
0.0890381 
0.0853557 
0.0817347 
0.0781764 
0.0746819 
0.0712524 
0.067889 
0.0645929 
0.0613652 
0.0582071 
0.0551198 
0.0521044 
0.049162 
0.0462938 
0.0435009 
0.0407844 
0.0381454 
0.0355852 
0.0331047 
0.030705 
0.0283873 
0.0261527 
0.0240021 
0.0219367 
0.0199576 
0.0180657 
0.0162622 
0.0145479 
0.012924 
0.0113914 
0.0099512 
0.00860425 
0.00735155 
0.00619406 
0.0051327 
0.00416839 
0.00330203 
0.00253451 
0.00186669 
0.00129942 
0.000833549 
0.000469881 
0.000209217 
5.23373e-05 
0 
5.29451e-05 
0.000211892 
0.000477538 
0.000850559 
0.00133161 
0.00192133 
0.00262031 
0.00342916 
0.00434842 
0.00537863 
0.00652031 
0.00777395 
0.00914 
0.0106189 
0.012211 
0.0139168 
0.0157366 
0.0176706 
0.0197193 
0.0218828 
0.0241614 
0.0265553 
0.0290646 
0.0316896 
0.0344303 
0.0372868 
0.040259 
0.0433472 
0.0465511 
0.0498709 
0.0533062 
0.0568571 
0.0605234 
0.0643049 
0.0682013 
0.0722123 
0.0763377 
0.0805771 
0.0849301 
0.0893963 
0.0939752 
0.0986664 
0.103469 
0.108383 
0.113408 
0.118542 
0.123785 
0.129137 
0.134597 
0.140163 
0.145835 
0.151612 
0.157493 
0.163477 
0.169563 
0.17575 
0.182037 
0.188423 
0.194906 
0.201486 
0.20816 
0.214928 
0.221788 
0.228739 
0.235779 
0.242907 
0.250121 
0.25742 
0.264802 
0.272265 
0.279808 
0.287429 
0.295126 
0.302897 
0.31074 
0.318654 
0.326636 
0.334684 
0.342797 
0.350972 
0.359207 
0.367499 
0.375848 
0.38425 
0.392702 
0.401204 
0.409752 
0.418343 
0.426976 
0.435648 
0.444357 
0.453099 
0.461873 
0.470675 
0.479502 
0.488353 
0.497225 
0.506114 
0.515018 
0.523933 
0.532858 
0.54179 
0.550724 
0.559659 
0.568591 
0.577517 
0.586434 
0.59534 
0.604231 
0.613104 
0.621956 
0.630783 
0.639583 
0.648352 
0.657088 
0.665786 
0.674444 
0.683059 
0.691627 
0.700144 
0.708608 
0.717016 
0.725364 
0.733648 
0.741866 
0.750013 
0.758088 
0.766086 
0.774004 
0.781839 
0.789587 
0.797246 
0.804812 
0.812281 
0.81965 
0.826917 
0.834077 
0.841128 
0.848067 
0.854889 
0.861592 
0.868174 
0.874629 
0.880957 
0.887152 
0.893213 
0.899137 
0.904919 
0.910558 
0.916051 
0.921393 
0.926584 
0.931619 
0.936496 
0.941213 
0.945766 
0.950153 
0.954371 
0.958418 
0.962291 
0.965989 
0.969507 
0.972845 
0.975999 
0.978968 
0.98175 
0.984342 
0.986742 
0.988948 
0.990959 
0.992773 
0.994388 
0.995802 
0.997014 
0.998021 
0.998824 
0.99942 
0.999808 
0.999987 
0.999956 
0.999713 
0.999259 
0.998591 
0.99771 
0.996614 
0.995304 
0.993778 
0.992036 
0.990078 
0.987904 
0.985513 
0.982906 
0.980083 
0.977044 
0.97379 
0.97032 
0.966636 
0.962737 
0.958625 
0.954301 
0.949766 
0.94502 
0.940065 
0.934902 
0.929532 
0.923958 
0.91818 
0.912201 
0.906022 
0.899646 
0.893074 
0.886308 
0.879351 
0.872206 
0.864874 
0.857359 
0.849663 
0.841789 
0.833741 
0.82552 
0.817131 
0.808577 
0.79986 
0.790986 
0.781957 
0.772776 
0.763449 
0.753979 
0.744369 
0.734625 
0.72475 
0.714749 
0.704626 
0.694386 
0.684033 
0.673573 
0.663009 
0.652348 
0.641593 
0.630751 
0.619826 
0.608823 
0.597749 
0.586608 
0.575406 
0.564148 
0.552841 
0.541489 
0.530099 
0.518677 
0.507228 
0.495759 
0.484275 
0.472782 
0.461288 
0.449797 
0.438316 
0.426852 
0.41541 
0.403998 
0.392621 
0.381285 
0.369997 
0.358765 
0.347593 
0.336488 
0.325457 
0.314507 
0.303644 
0.292874 
0.282203 
0.271639 
0.261187 
0.250854 
0.240647 
0.230571 
0.220633 
0.21084 
0.201197 
0.19171 
0.182387 
0.173232 
0.164252 
0.155454 
0.146842 
0.138422 
0.130201 
0.122184 
0.114376 
0.106784 
0.0994122 
0.0922661 
0.085351 
0.078672 
0.072234 
0.0660419 
0.0601006 
0.0544145 
0.0489883 
0.0438262 
0.0389324 
0.0343112 
0.0299664 
0.0259019 
0.0221212 
0.0186279 
0.0154253 
0.0125165 
0.00990468 
0.00759253 
0.00558274 
0.00387781 
0.00248004 
0.00139154 
0.000614256 
0.000149924 
9.85513e-08 
0.000166137 
0.000649197 
0.00145024 
0.00257002 
0.00400908 
0.00576777 
0.00784623 
0.0102444 
0.0129619 
0.0159983 
0.0193529 
0.0230246 
0.0270125 
0.031315 
0.0359305 
0.0408573 
0.0460933 
0.0516362 
0.0574835 
0.0636324 
0.0700801 
0.0768234 
0.0838588 
0.0911827 
0.0987914 
0.106681 
0.114846 
0.123284 
0.131988 
0.140955 
0.150178 
0.159654 
0.169375 
0.179336 
0.189532 
0.199955 
0.2106 
0.221461 
0.232529 
0.243798 
0.255262 
0.266912 
0.278741 
0.290741 
0.302904 
0.315223 
0.327689 
0.340294 
0.353028 
0.365884 
0.378853 
0.391925 
0.405092 
0.418343 
0.431671 
0.445065 
0.458515 
0.472013 
0.485548 
0.49911 
0.512689 
0.526276 
0.539861 
0.553432 
0.56698 
0.580495 
0.593966 
0.607384 
0.620736 
0.634015 
0.647208 
0.660306 
0.673298 
0.686173 
0.698923 
0.711536 
0.724001 
0.73631 
0.748452 
0.760416 
0.772193 
0.783773 
0.795147 
0.806304 
0.817235 
0.82793 
0.838381 
0.848577 
0.858511 
0.868174 
0.877555 
0.886648 
0.895444 
0.903934 
0.912111 
0.919967 
0.927495 
0.934687 
0.941536 
0.948035 
0.954179 
0.95996 
0.965372 
0.970411 
0.97507 
0.979344 
0.983229 
0.986719 
0.98981 
0.9925 
0.994783 
0.996656 
0.998117 
0.999163 
0.999791 
1 
0.999788 
0.999153 
0.998095 
0.996613 
0.994707 
0.992378 
0.989624 
0.986449 
0.982852 
0.978836 
0.974402 
0.969553 
0.964292 
0.958622 
0.952546 
0.946069 
0.939195 
0.931928 
0.924273 
0.916236 
0.907824 
0.899041 
0.889894 
0.880392 
0.87054 
0.860346 
0.849819 
0.838966 
0.827797 
0.816321 
0.804546 
0.792483 
0.780141 
0.767531 
0.754664 
0.74155 
0.728201 
0.714628 
0.700843 
0.686857 
0.672684 
0.658336 
0.643825 
0.629165 
0.614368 
0.599449 
0.58442 
0.569296 
0.55409 
0.538817 
0.52349 
0.508124 
0.492734 
0.477334 
0.461939 
0.446564 
0.431223 
0.415931 
0.400703 
0.385554 
0.370499 
0.355553 
0.34073 
0.326046 
0.311516 
0.297153 
0.282973 
0.26899 
0.255218 
0.241672 
0.228366 
0.215313 
0.202528 
0.190025 
0.177815 
0.165913 
0.154332 
0.143084 
0.132181 
0.121636 
0.11146 
0.101665 
0.0922613 
0.0832606 
0.0746731 
0.0665088 
0.0587773 
0.051488 
0.0446496 
0.0382707 
0.0323593 
0.0269229 
0.0219687 
0.0175032 
0.0135328 
0.0100629 
0.00709895 
0.00464548 
0.00270667 
0.00128618 
0.000387097 
1.20016e-05 
0.000162913 
0.000841304 
0.00204809 
0.00378362 
0.00604769 
0.00883951 
0.0121577 
0.0160004 
0.020365 
0.0252485 
0.0306472 
0.0365569 
0.0429726 
0.0498891 
0.0573003 
0.0651997 
0.0735801 
0.0824339 
0.0917527 
0.101528 
0.11175 
0.122409 
0.133495 
0.144996 
0.156901 
0.169199 
0.181876 
0.194919 
0.208316 
0.222052 
0.236113 
0.250484 
0.265149 
0.280094 
0.295301 
0.310755 
0.326439 
0.342336 
0.358427 
0.374696 
0.391124 
0.407692 
0.424383 
0.441177 
0.458056 
0.475 
0.491989 
0.509004 
0.526025 
0.543033 
0.560008 
0.576929 
0.593777 
0.610532 
0.627173 
0.643681 
0.660036 
0.676218 
0.692207 
0.707984 
0.723529 
0.738824 
0.753849 
0.768585 
0.783014 
0.797118 
0.810879 
0.824278 
0.8373 
0.849926 
0.862142 
0.873929 
0.885274 
0.89616 
0.906574 
0.916501 
0.925927 
0.93484 
0.943226 
0.951075 
0.958375 
0.965115 
0.971285 
0.976876 
0.98188 
0.986288 
0.990093 
0.993289 
0.99587 
0.997831 
0.999168 
0.999877 
0.999956 
0.999402 
0.998215 
0.996395 
0.993941 
0.990856 
0.987141 
0.9828 
0.977836 
0.972253 
0.966058 
0.959257 
0.951856 
0.943864 
0.93529 
0.926142 
0.916431 
0.906169 
0.895367 
0.884038 
0.872195 
0.859852 
0.847025 
0.833728 
0.819979 
0.805794 
0.79119 
0.776187 
0.760802 
0.745056 
0.728968 
0.71256 
0.695851 
0.678865 
0.661622 
0.644146 
0.62646 
0.608586 
0.590549 
0.572373 
0.554082 
0.5357 
0.517253 
0.498766 
0.480264 
0.461772 
0.443316 
0.424922 
0.406614 
0.388419 
0.370362 
0.352468 
0.334763 
0.317272 
0.300021 
0.283033 
0.266334 
0.249947 
0.233896 
0.218206 
0.202899 
0.187997 
0.173524 
0.1595 
0.145947 
0.132885 
0.120335 
0.108316 
0.0968451 
0.0859418 
0.0756229 
0.0659047 
0.0568028 
0.0483321 
0.0405064 
0.0333389 
0.0268416 
0.0210258 
0.0159017 
0.0114787 
0.00776512 
0.00476819 
0.00249423 
0.000948477 
0.000135127 
5.72983e-05 
0.000717035 
0.00211529 
0.00425193 
0.00712571 
0.0107343 
0.0150742 
0.0201408 
0.0259285 
0.0324305 
0.0396388 
0.0475446 
0.0561376 
0.0654067 
0.0753396 
0.085923 
0.0971426 
0.108983 
0.121428 
0.134459 
0.148059 
0.162209 
0.176887 
0.192073 
0.207745 
0.22388 
0.240453 
0.257442 
0.27482 
0.292561 
0.310639 
0.329027 
0.347696 
0.366619 
0.385766 
0.405108 
0.424615 
0.444257 
0.464003 
0.483823 
0.503684 
0.523557 
0.543409 
0.563209 
0.582925 
0.602526 
0.62198 
0.641256 
0.660321 
0.679146 
0.6977 
0.715951 
0.73387 
0.751427 
0.768592 
0.785337 
0.801634 
0.817455 
0.832772 
0.847561 
0.861795 
0.875449 
0.888501 
0.900926 
0.912703 
0.923811 
0.93423 
0.943941 
0.952927 
0.96117 
0.968654 
0.975367 
0.981294 
0.986424 
0.990746 
0.994251 
0.996931 
0.998779 
0.999791 
0.999963 
0.999292 
0.997778 
0.99542 
0.992221 
0.988184 
0.983314 
0.977618 
0.971103 
0.963777 
0.955653 
0.946741 
0.937055 
0.92661 
0.915422 
0.903509 
0.890889 
0.877583 
0.863611 
0.848998 
0.833766 
0.81794 
0.801547 
0.784614 
0.76717 
0.749244 
0.730866 
0.712067 
0.69288 
0.673337 
0.653472 
0.63332 
0.612916 
0.592295 
0.571494 
0.550549 
0.529497 
0.508376 
0.487223 
0.466076 
0.444973 
0.423953 
0.403052 
0.382311 
0.361765 
0.341453 
0.321413 
0.301681 
0.282294 
0.263288 
0.244698 
0.22656 
0.208909 
0.191776 
0.175196 
0.1592 
0.143818 
0.129081 
0.115017 
0.101654 
0.089019 
0.077136 
0.0660295 
0.0557217 
0.0462339 
0.0375857 
0.0297953 
0.0228791 
0.0168523 
0.0117282 
0.00751853 
0.00423342 
0.00188118 
0.000468429 
1.26348e-08 
0.000479003 
0.00190668 
0.00428251 
0.00760417 
0.0118675 
0.0170665 
0.0231933 
0.0302384 
0.0381904 
0.047036 
0.0567602 
0.0673463 
0.0787757 
0.0910284 
0.104082 
0.117914 
0.132499 
0.14781 
0.163818 
0.180495 
0.197808 
0.215727 
0.234216 
0.253241 
0.272765 
0.292752 
0.313162 
0.333957 
0.355096 
0.376538 
0.398241 
0.420162 
0.442259 
0.464488 
0.486804 
0.509163 
0.531521 
0.553832 
0.576052 
0.598135 
0.620037 
0.641714 
0.66312 
0.684212 
0.704947 
0.725281 
0.745173 
0.76458 
0.783463 
0.801781 
0.819496 
0.836569 
0.852966 
0.868649 
0.883586 
0.897745 
0.911093 
0.923602 
0.935244 
0.945993 
0.955825 
0.964717 
0.972648 
0.979601 
0.985557 
0.990503 
0.994427 
0.997316 
0.999164 
0.999964 
0.999712 
0.998406 
0.996047 
0.992638 
0.988182 
0.982689 
0.976166 
0.968625 
0.960081 
0.95055 
0.940049 
0.928599 
0.916222 
0.902944 
0.888791 
0.87379 
0.857974 
0.841373 
0.824023 
0.805959 
0.787219 
0.767843 
0.74787 
0.727343 
0.706306 
0.684804 
0.662882 
0.640588 
0.61797 
0.595077 
0.571958 
0.548665 
0.525247 
0.501757 
0.478247 
0.454768 
0.431372 
0.408112 
0.38504 
0.362208 
0.339667 
0.317467 
0.295661 
0.274296 
0.253423 
0.233088 
0.21334 
0.194223 
0.175782 
0.158061 
0.141101 
0.124941 
0.109621 
0.0951766 
0.0816429 
0.0690527 
0.0574367 
0.0468233 
0.0372391 
0.0287082 
0.0212524 
0.014891 
0.00964095 
0.00551677 
0.0025303 
0.000690816 
4.98511e-06 
0.000476806 
0.0021076 
0.004896 
0.00883794 
0.0139266 
0.0201526 
0.0275036 
0.0359648 
0.0455188 
0.0561453 
0.0678216 
0.0805224 
0.0942199 
0.108884 
0.124482 
0.140978 
0.158336 
0.176516 
0.195477 
0.215175 
0.235565 
0.2566 
0.27823 
0.300405 
0.323073 
0.346181 
0.369674 
0.393496 
0.417591 
0.441901 
0.466368 
0.490933 
0.515537 
0.54012 
0.564622 
0.588983 
0.613145 
0.637047 
0.660631 
0.683838 
0.706612 
0.728894 
0.75063 
0.771764 
0.792245 
0.812019 
0.831037 
0.84925 
0.866611 
0.883075 
0.898601 
0.913147 
0.926676 
0.939151 
0.950539 
0.960809 
0.969935 
0.97789 
0.984652 
0.990202 
0.994523 
0.997603 
0.99943 
0.999998 
0.999303 
0.997344 
0.994123 
0.989647 
0.983923 
0.976964 
0.968786 
0.959406 
0.948847 
0.937132 
0.924291 
0.910353 
0.895351 
0.879324 
0.862309 
0.844349 
0.825488 
0.805774 
0.785255 
0.763983 
0.742012 
0.719398 
0.696198 
0.672472 
0.64828 
0.623685 
0.598751 
0.573542 
0.548123 
0.522561 
0.496923 
0.471277 
0.445689 
0.420228 
0.394962 
0.369957 
0.34528 
0.320998 
0.297176 
0.273878 
0.251167 
0.229105 
0.207752 
0.187167 
0.167406 
0.148524 
0.130573 
0.113604 
0.0976643 
0.0827983 
0.0690485 
0.0564543 
0.0450519 
0.0348747 
0.0259525 
0.018312 
0.0119766 
0.00696593 
0.00329627 
0.000980202 
2.66781e-05 
0.000440927 
0.00222444 
0.00537496 
0.00988644 
0.0157491 
0.0229493 
0.0314698 
0.0412896 
0.052384 
0.0647247 
0.0782799 
0.0930143 
0.108889 
0.125862 
0.143889 
0.16292 
0.182905 
0.203789 
0.225516 
0.248027 
0.271259 
0.295149 
0.31963 
0.344635 
0.370095 
0.395937 
0.42209 
0.44848 
0.475033 
0.501674 
0.528326 
0.554915 
0.581363 
0.607596 
0.633538 
0.659115 
0.684251 
0.708875 
0.732914 
0.756299 
0.77896 
0.800832 
0.821848 
0.841948 
0.861071 
0.87916 
0.89616 
0.912021 
0.926693 
0.940132 
0.952297 
0.963149 
0.972654 
0.980782 
0.987507 
0.992806 
0.996661 
0.999058 
0.999987 
0.999443 
0.997425 
0.993936 
0.988983 
0.982579 
0.97474 
0.965486 
0.954842 
0.942838 
0.929507 
0.914885 
0.899016 
0.881942 
0.863715 
0.844386 
0.82401 
0.802649 
0.780363 
0.757219 
0.733285 
0.708631 
0.683332 
0.657462 
0.631098 
0.604321 
0.577211 
0.549849 
0.522318 
0.494703 
0.467087 
0.439555 
0.412192 
0.385081 
0.358306 
0.331951 
0.306097 
0.280824 
0.256212 
0.232338 
0.209277 
0.187101 
0.165882 
0.145687 
0.12658 
0.108623 
0.0918737 
0.0763866 
0.0622124 
0.0493978 
0.0379851 
0.0280128 
0.0195148 
0.0125203 
0.00705401 
0.00313594 
0.000781203 
1.89522e-08 
0.000797675 
0.00317447 
0.00712571 
0.0126417 
0.0197076 
0.0283039 
0.0384058 
0.049984 
0.063004 
0.0774269 
0.093209 
0.110302 
0.128654 
0.148208 
0.168904 
0.190676 
0.213457 
0.237174 
0.261754 
0.287118 
0.313185 
0.339873 
0.367096 
0.394765 
0.422794 
0.451089 
0.479561 
0.508116 
0.536661 
0.565103 
0.593349 
0.621306 
0.64888 
0.675982 
0.702522 
0.72841 
0.75356 
0.777889 
0.801313 
0.823755 
0.845138 
0.865389 
0.88444 
0.902224 
0.91868 
0.933752 
0.947386 
0.959535 
0.970155 
0.979208 
0.986661 
0.992487 
0.996662 
0.99917 
1 
0.999146 
0.996607 
0.992391 
0.986507 
0.978973 
0.969812 
0.959051 
0.946726 
0.932874 
0.917541 
0.900776 
0.882634 
0.863174 
0.842461 
0.820564 
0.797556 
0.773513 
0.748517 
0.722652 
0.696006 
0.668668 
0.640733 
0.612296 
0.583454 
0.554307 
0.524954 
0.495499 
0.466042 
0.436687 
0.407536 
0.37869 
0.350252 
0.322321 
0.294996 
0.268373 
0.242547 
0.217611 
0.193653 
0.17076 
0.149013 
0.128492 
0.10927 
0.0914192 
0.0750038 
0.0600846 
0.0467172 
0.0349516 
0.0248322 
0.0163981 
0.00968192 
0.00471065 
0.00150494 
7.92393e-05 
0.000441631 
0.00259382 
0.00653111 
0.0122423 
0.01971 
0.02891 
0.0398123 
0.0523803 
0.0665714 
0.0823371 
0.0996229 
0.118369 
0.138509 
0.159973 
0.182684 
0.206563 
0.231524 
0.257478 
0.284332 
0.311989 
0.340349 
0.36931 
0.398766 
0.42861 
0.458732 
0.489023 
0.519372 
0.549665 
0.579792 
0.609641 
0.6391 
0.668061 
0.696414 
0.724054 
0.750876 
0.77678 
0.801667 
0.825444 
0.848018 
0.869305 
0.889222 
0.907693 
0.924645 
0.940013 
0.953736 
0.96576 
0.976038 
0.984526 
0.991191 
0.996004 
0.998944 
0.999997 
0.999156 
0.99642 
0.991797 
0.985302 
0.976957 
0.966789 
0.954835 
0.941138 
0.925747 
0.908718 
0.890115 
0.870005 
0.848463 
0.825571 
0.801413 
0.776082 
0.749672 
0.722284 
0.694023 
0.664996 
0.635314 
0.605091 
0.574445 
0.543492 
0.512354 
0.481152 
0.450005 
0.419038 
0.38837 
0.358122 
0.328413 
0.299361 
0.27108 
0.243683 
0.217279 
0.191974 
0.167869 
0.145061 
0.123642 
0.103699 
0.0853135 
0.0685607 
0.0535097 
0.0402228 
0.0287558 
0.0191571 
0.011468 
0.00572218 
0.00194562 
0.000156561 
0.000365328 
0.00257426 
0.00677768 
0.0129619 
0.0211052 
0.031178 
0.0431427 
0.0569542 
0.0725597 
0.0898989 
0.108905 
0.129503 
0.151612 
0.175145 
0.200009 
0.226105 
0.253328 
0.28157 
0.310717 
0.340651 
0.371252 
0.402395 
0.433954 
0.4658 
0.497803 
0.529831 
0.561754 
0.59344 
0.624757 
0.655576 
0.685769 
0.71521 
0.743777 
0.771349 
0.797812 
0.823052 
0.846964 
0.869446 
0.890403 
0.909744 
0.927386 
0.943253 
0.957277 
0.969395 
0.979553 
0.987707 
0.993818 
0.997859 
0.999808 
0.999654 
0.997396 
0.993038 
0.986596 
0.978094 
0.967565 
0.955051 
0.9406 
0.924273 
0.906135 
0.88626 
0.864731 
0.841636 
0.817073 
0.791142 
0.763955 
0.735623 
0.706268 
0.676014 
0.644988 
0.613324 
0.581157 
0.548623 
0.515863 
0.483019 
0.450231 
0.417641 
0.385391 
0.353621 
0.32247 
0.292073 
0.262565 
0.234074 
0.206726 
0.180643 
0.15594 
0.132726 
0.111107 
0.0911779 
0.0730298 
0.0567447 
0.0423968 
0.0300522 
0.0197682 
0.0115933 
0.00556652 
0.00171788 
6.76184e-05 
0.000626354 
0.00339496 
0.0083645 
0.0155163 
0.0248218 
0.036243 
0.0497323 
0.0652328 
0.0826783 
0.101994 
0.123096 
0.145894 
0.170287 
0.196169 
0.223426 
0.251937 
0.281577 
0.312214 
0.343712 
0.375929 
0.408722 
0.441943 
0.475443 
0.509071 
0.542674 
0.576101 
0.609199 
0.641818 
0.673808 
0.705023 
0.73532 
0.764559 
0.792605 
0.819328 
0.844604 
0.868315 
0.89035 
0.910606 
0.928987 
0.945405 
0.959782 
0.972049 
0.982147 
0.990025 
0.995643 
0.998973 
0.999996 
0.998703 
0.995098 
0.989192 
0.981011 
0.97059 
0.957972 
0.943215 
0.926383 
0.907552 
0.886807 
0.864243 
0.839963 
0.814077 
0.786705 
0.757973 
0.728015 
0.696969 
0.66498 
0.632198 
0.598776 
0.564871 
0.530643 
0.496253 
0.461864 
0.42764 
0.393742 
0.360332 
0.327571 
0.295615 
0.264617 
0.234727 
0.206089 
0.178841 
0.153117 
0.129042 
0.106732 
0.0862991 
0.0678426 
0.0514546 
0.0372169 
0.0252012 
0.0154687 
0.00806954 
0.00304295 
0.000416646 
0.000206801 
0.00241793 
0.00704279 
0.0140624 
0.0234462 
0.0351519 
0.0491258 
0.0653031 
0.0836082 
0.103955 
0.126246 
0.150376 
0.176229 
0.203681 
0.2326 
0.262845 
0.29427 
0.326722 
0.360043 
0.394069 
0.428635 
0.463569 
0.498699 
0.533853 
0.568856 
0.603534 
0.637716 
0.671229 
0.703907 
0.735586 
0.766107 
0.795316 
0.823065 
0.849214 
0.873629 
0.896186 
0.916769 
0.935273 
0.951601 
0.965669 
0.977402 
0.986738 
0.993627 
0.99803 
0.999921 
0.999289 
0.996131 
0.990461 
0.982304 
0.971697 
0.958692 
0.94335 
0.925747 
0.905969 
0.884113 
0.860288 
0.834613 
0.807217 
0.778237 
0.747819 
0.716117 
0.683293 
0.649512 
0.614947 
0.579776 
0.544177 
0.508334 
0.472431 
0.436654 
0.401187 
0.366215 
0.33192 
0.298479 
0.266067 
0.234855 
0.205005 
0.176676 
0.150017 
0.125168 
0.102263 
0.0814229 
0.0627599 
0.0463748 
0.0323563 
0.0207813 
0.0117137 
0.00520479 
0.00129219 
9.85513e-08 
0.00133895 
0.00530535 
0.011882 
0.0210378 
0.032728 
0.0468942 
0.0634648 
0.0823555 
0.103469 
0.126697 
0.151918 
0.179002 
0.207806 
0.23818 
0.269963 
0.302989 
0.337082 
0.372062 
0.407742 
0.443932 
0.48044 
0.517069 
0.553624 
0.589906 
0.625722 
0.660877 
0.695181 
0.728447 
0.760495 
0.791149 
0.820243 
0.847615 
0.873116 
0.896605 
0.917951 
0.937035 
0.95375 
0.968003 
0.979712 
0.98881 
0.995243 
0.998973 
0.999976 
0.998242 
0.993778 
0.986603 
0.976755 
0.964283 
0.949252 
0.931742 
0.911845 
0.889669 
0.865332 
0.838966 
0.810714 
0.780731 
0.749178 
0.716231 
0.682068 
0.64688 
0.610858 
0.574204 
0.537121 
0.499814 
0.462491 
0.425361 
0.388631 
0.352508 
0.317194 
0.28289 
0.249787 
0.218075 
0.187932 
0.159531 
0.133033 
0.108592 
0.0863461 
0.0664253 
0.0489449 
0.0340069 
0.0216993 
0.0120954 
0.00525313 
0.00121512 
7.99527e-06 
0.0016424 
0.00611282 
0.0133976 
0.0234589 
0.036243 
0.0516807 
0.0696871 
0.0901627 
0.112994 
0.138052 
0.165197 
0.194276 
0.225124 
0.257566 
0.291418 
0.326486 
0.36257 
0.399463 
0.436953 
0.474824 
0.512857 
0.550832 
0.58853 
0.62573 
0.662217 
0.697777 
0.732202 
0.765291 
0.796848 
0.826689 
0.854635 
0.880522 
0.904196 
0.925514 
0.944349 
0.960588 
0.974131 
0.984896 
0.992816 
0.997839 
0.999934 
0.999083 
0.995289 
0.988569 
0.978959 
0.966512 
0.951299 
0.933406 
0.912935 
0.890005 
0.864748 
0.837312 
0.807858 
0.776557 
0.743594 
0.709164 
0.67347 
0.636725 
0.599145 
0.560956 
0.522385 
0.483663 
0.445023 
0.406696 
0.368914 
0.331904 
0.29589 
0.261091 
0.227719 
0.195976 
0.166057 
0.138144 
0.112411 
0.0890142 
0.0680999 
0.0497979 
0.0342228 
0.0214728 
0.0116292 
0.0047555 
0.000897597 
8.28594e-05 
0.00232018 
0.0075998 
0.0158933 
0.0271539 
0.0413163 
0.0582974 
0.0779966 
0.100296 
0.125063 
0.152147 
0.181385 
0.212599 
0.245599 
0.280184 
0.316142 
0.353253 
0.391287 
0.430011 
0.469186 
0.508568 
0.547914 
0.586979 
0.625519 
0.663294 
0.700067 
0.735608 
0.769694 
0.802108 
0.832647 
0.861118 
0.887338 
0.911141 
0.932374 
0.950901 
0.966602 
0.979375 
0.989135 
0.995817 
0.999375 
0.999783 
0.997034 
0.991141 
0.982138 
0.970078 
0.955033 
0.937096 
0.916376 
0.893001 
0.867117 
0.838886 
0.808484 
0.776103 
0.741946 
0.70623 
0.669181 
0.631034 
0.592032 
0.552424 
0.512463 
0.472406 
0.432509 
0.39303 
0.354222 
0.316337 
0.27962 
0.244309 
0.210635 
0.178816 
0.149061 
0.121565 
0.0965084 
0.0740577 
0.0543613 
0.0375507 
0.0237387 
0.0130188 
0.00546476 
0.0011297 
4.58825e-05 
0.00222444 
0.0076552 
0.0163067 
0.0281263 
0.0430406 
0.0609557 
0.0817577 
0.105314 
0.131472 
0.160065 
0.190906 
0.223796 
0.25852 
0.294851 
0.332551 
0.371373 
0.411062 
0.451356 
0.491989 
0.532691 
0.573193 
0.613226 
0.652523 
0.690822 
0.727865 
0.763406 
0.797206 
0.829035 
0.858681 
0.885941 
0.91063 
0.93258 
0.951641 
0.967681 
0.980588 
0.990273 
0.996666 
0.99972 
0.99941 
0.995734 
0.988714 
0.978392 
0.964834 
0.948128 
0.928383 
0.905729 
0.880316 
0.852312 
0.821906 
0.7893 
0.754714 
0.718381 
0.680546 
0.641465 
0.601402 
0.560632 
0.51943 
0.478079 
0.436862 
0.39606 
0.355954 
0.31682 
0.278928 
0.24254 
0.207908 
0.175272 
0.14486 
0.116884 
0.09154 
0.069006 
0.0494413 
0.0329848 
0.0197542 
0.00984503 
0.00332997 
0.000258334 
0.000655615 
0.00452323 
0.0118385 
0.0225545 
0.0366009 
0.0538836 
0.074286 
0.0976693 
0.123874 
0.152719 
0.184007 
0.217521 
0.253029 
0.290284 
0.329027 
0.368986 
0.409883 
0.451431 
0.493337 
0.535307 
0.577045 
0.618255 
0.658646 
0.697931 
0.73583 
0.772074 
0.806403 
0.838572 
0.868349 
0.895521 
0.91989 
0.94128 
0.959535 
0.974521 
0.986127 
0.994267 
0.998878 
0.999923 
0.99739 
0.991293 
0.981671 
0.96859 
0.952139 
0.932433 
0.909609 
0.883828 
0.855272 
0.824144 
0.790665 
0.755075 
0.717627 
0.678591 
0.638247 
0.596886 
0.554806 
0.512313 
0.469713 
0.427316 
0.385432 
0.344364 
0.304415 
0.265875 
0.229027 
0.194143 
0.161481 
0.13128 
0.103765 
0.0791418 
0.0575927 
0.03928 
0.0243418 
0.0128919 
0.00501839 
0.000783546 
0.000222758 
0.00334446 
0.0101299 
0.0205334 
0.0344822 
0.0518775 
0.0725944 
0.0964836 
0.123372 
0.153063 
0.18534 
0.219967 
0.256688 
0.295233 
0.335317 
0.376643 
0.418905 
0.461789 
0.504974 
0.548139 
0.590961 
0.633119 
0.674295 
0.714181 
0.752476 
0.78889 
0.823148 
0.854989 
0.884172 
0.910472 
0.933689 
0.953645 
0.970183 
0.983177 
0.992523 
0.998146 
1 
0.998066 
0.992354 
0.982904 
0.969783 
0.953086 
0.932937 
0.909484 
0.882903 
0.853393 
0.821175 
0.786492 
0.749607 
0.710799 
0.670363 
0.628606 
0.585848 
0.542416 
0.498641 
0.454859 
0.411408 
0.368623 
0.326832 
0.28636 
0.24752 
0.210614 
0.175929 
0.143736 
0.114286 
0.0878107 
0.0645188 
0.0445943 
0.0281956 
0.0154542 
0.0064732 
0.00132673 
5.92166e-05 
0.00268495 
0.0091879 
0.0195217 
0.0336101 
0.0513473 
0.0725988 
0.0972022 
0.124969 
0.155684 
0.189112 
0.224991 
0.263044 
0.302974 
0.344468 
0.387202 
0.430841 
0.475041 
0.519455 
0.563732 
0.607523 
0.650479 
0.692261 
0.732536 
0.770983 
0.807296 
0.841183 
0.872373 
0.900615 
0.925681 
0.947367 
0.965498 
0.979924 
0.990526 
0.997216 
0.999935 
0.998657 
0.993388 
0.984166 
0.97106 
0.954172 
0.933631 
0.9096 
0.882267 
0.851848 
0.818586 
0.782745 
0.74461 
0.704488 
0.6627 
0.619582 
0.57548 
0.530751 
0.485757 
0.440861 
0.396429 
0.35282 
0.310391 
0.269487 
0.230444 
0.19358 
0.1592 
0.127585 
0.0989965 
0.073672 
0.0518217 
0.0336283 
0.0192445 
0.00879252 
0.00236229 
1.1035e-05 
0.00176258 
0.00760708 
0.017501 
0.0313675 
0.0490968 
0.0705471 
0.0955457 
0.12389 
0.15535 
0.18967 
0.226567 
0.265741 
0.306869 
0.349613 
0.393619 
0.438524 
0.483957 
0.529539 
0.574892 
0.619639 
0.663405 
0.705825 
0.746544 
0.78522 
0.821528 
0.85516 
0.885834 
0.913289 
0.937291 
0.957635 
0.974147 
0.986684 
0.995136 
0.999428 
0.999518 
0.995402 
0.987109 
0.974705 
0.958291 
0.938 
0.913999 
0.886489 
0.855697 
0.82188 
0.785324 
0.746333 
0.705237 
0.662383 
0.618133 
0.572862 
0.526954 
0.4808 
0.434793 
0.389325 
0.344786 
0.301558 
0.26001 
0.220501 
0.183371 
0.148941 
0.117509 
0.0893485 
0.0647041 
0.0437919 
0.0267956 
0.0138658 
0.00511834 
0.00063308 
0.000453325 
0.00458528 
0.0129979 
0.0256231 
0.0423563 
0.0630569 
0.08755 
0.115627 
0.147049 
0.181546 
0.218822 
0.258556 
0.300405 
0.344006 
0.388982 
0.434942 
0.481486 
0.528209 
0.574702 
0.620558 
0.665375 
0.708761 
0.750332 
0.789724 
0.826587 
0.860596 
0.891447 
0.918868 
0.942612 
0.962467 
0.978253 
0.989827 
0.997083 
0.999951 
0.998401 
0.992443 
0.982125 
0.967532 
0.948791 
0.926063 
0.899545 
0.869469 
0.836098 
0.799726 
0.760674 
0.719285 
0.675927 
0.630985 
0.584858 
0.537956 
0.490699 
0.443508 
0.396806 
0.351012 
0.306537 
0.263782 
0.223133 
0.184956 
0.149598 
0.11738 
0.0885948 
0.0635057 
0.0423428 
0.0253011 
0.0125389 
0.00417595 
0.000292517 
0.000928467 
0.00608281 
0.0157136 
0.0297383 
0.0480343 
0.0704399 
0.0967559 
0.126747 
0.160145 
0.196648 
0.235928 
0.277629 
0.321374 
0.366764 
0.413388 
0.46082 
0.508627 
0.556372 
0.603616 
0.649928 
0.69488 
0.738058 
0.779064 
0.817519 
0.853067 
0.885375 
0.914145 
0.939106 
0.960025 
0.976704 
0.988985 
0.996749 
0.99992 
0.998464 
0.992389 
0.981747 
0.966633 
0.94718 
0.923567 
0.896007 
0.864754 
0.830094 
0.792347 
0.751861 
0.709012 
0.664197 
0.617832 
0.57035 
0.522193 
0.473811 
0.425659 
0.378187 
0.331841 
0.287057 
0.244259 
0.20385 
0.166213 
0.131705 
0.100654 
0.0733571 
0.0500753 
0.0310325 
0.016413 
0.00635948 
0.00097183 
0.000305847 
0.00437271 
0.0131387 
0.0265257 
0.0444111 
0.0666299 
0.0929753 
0.123201 
0.157023 
0.194124 
0.234152 
0.276729 
0.321452 
0.367895 
0.415617 
0.464162 
0.513066 
0.561862 
0.610082 
0.657263 
0.70295 
0.746705 
0.788103 
0.826746 
0.862257 
0.894292 
0.92254 
0.946722 
0.966602 
0.981984 
0.992715 
0.998685 
0.999833 
0.996141 
0.987642 
0.974413 
0.956576 
0.934301 
0.907799 
0.877324 
0.843169 
0.805661 
0.765163 
0.722067 
0.67679 
0.629772 
0.581471 
0.532357 
0.48291 
0.433613 
0.384951 
0.337399 
0.291426 
0.247484 
0.206007 
0.167406 
0.132062 
0.100327 
0.0725162 
0.0489087 
0.0297412 
0.0152072 
0.00545489 
0.000585538 
0.000652188 
0.00565916 
0.0155619 
0.0302671 
0.049634 
0.0734751 
0.101558 
0.133609 
0.169312 
0.208316 
0.250237 
0.29466 
0.341143 
0.389227 
0.438433 
0.48827 
0.53824 
0.587845 
0.636588 
0.683979 
0.729542 
0.772818 
0.813372 
0.850793 
0.884702 
0.914754 
0.940644 
0.962106 
0.97892 
0.990912 
0.997955 
0.999975 
0.996945 
0.98889 
0.975889 
0.958066 
0.935599 
0.908709 
0.877665 
0.842779 
0.8044 
0.762915 
0.718743 
0.672331 
0.624148 
0.574685 
0.524444 
0.473937 
0.423679 
0.374185 
0.32596 
0.2795 
0.235281 
0.193759 
0.155363 
0.120488 
0.0894967 
0.0627112 
0.0404107 
0.022829 
0.0101518 
0.00251433 
3.79043e-07 
0.00264091 
0.0104138 
0.0232438 
0.0410034 
0.0635139 
0.090547 
0.121827 
0.157035 
0.19581 
0.237752 
0.282429 
0.329381 
0.378122 
0.428145 
0.478933 
0.529957 
0.580685 
0.630589 
0.679146 
0.72585 
0.770208 
0.811757 
0.850058 
0.884707 
0.915338 
0.941626 
0.96329 
0.9801 
0.991873 
0.99848 
0.999849 
0.995957 
0.986843 
0.972596 
0.953362 
0.929339 
0.900776 
0.867969 
0.831263 
0.79104 
0.747724 
0.701771 
0.653664 
0.603911 
0.55304 
0.50159 
0.450105 
0.399135 
0.349221 
0.300897 
0.254677 
0.211058 
0.170508 
0.13346 
0.100316 
0.0714336 
0.0471247 
0.0276545 
0.0132362 
0.00402922 
0.000137278 
0.00160731 
0.00842872 
0.0205334 
0.0377964 
0.0600369 
0.0870203 
0.118461 
0.154023 
0.193329 
0.235957 
0.281449 
0.329318 
0.379048 
0.430103 
0.48193 
0.53397 
0.585659 
0.636434 
0.685746 
0.733055 
0.777847 
0.819631 
0.85795 
0.892384 
0.922553 
0.948124 
0.968815 
0.984394 
0.994686 
0.999573 
0.998998 
0.992961 
0.981522 
0.964803 
0.942982 
0.916292 
0.885023 
0.849513 
0.81015 
0.767361 
0.721616 
0.673415 
0.623288 
0.571784 
0.519472 
0.466928 
0.414733 
0.363465 
0.313691 
0.265963 
0.220814 
0.178745 
0.140227 
0.105689 
0.075521 
0.0500607 
0.0295962 
0.0143599 
0.00452661 
0.000210917 
0.00146622 
0.00828381 
0.0205929 
0.0382611 
0.061096 
0.0888473 
0.121209 
0.157823 
0.198282 
0.242138 
0.288901 
0.338049 
0.389031 
0.441277 
0.4942 
0.547205 
0.599695 
0.651078 
0.700774 
0.748219 
0.792877 
0.834239 
0.871836 
0.905239 
0.934064 
0.957982 
0.976717 
0.990051 
0.997829 
0.999955 
0.996402 
0.987203 
0.972459 
0.952332 
0.927046 
0.896885 
0.862188 
0.823346 
0.7808 
0.735032 
0.686562 
0.635943 
0.583751 
0.530584 
0.47705 
0.423762 
0.371333 
0.320365 
0.271445 
0.225138 
0.181979 
0.142468 
0.107064 
0.0761776 
0.0501704 
0.0293468 
0.0139522 
0.00416947 
0.000117076 
0.00184721 
0.00934524 
0.0225297 
0.041253 
0.0653031 
0.094406 
0.128228 
0.166381 
0.208425 
0.253875 
0.302204 
0.352852 
0.405231 
0.458732 
0.512731 
0.566598 
0.619704 
0.671426 
0.721158 
0.768316 
0.812346 
0.852728 
0.888985 
0.920689 
0.947461 
0.968983 
0.984998 
0.995312 
0.999797 
0.998396 
0.99112 
0.97805 
0.959333 
0.935187 
0.90589 
0.871786 
0.833272 
0.790802 
0.744874 
0.696029 
0.644844 
0.591925 
0.537898 
0.483404 
0.429091 
0.375604 
0.323582 
0.273646 
0.226392 
0.182387 
0.142158 
0.10619 
0.0749156 
0.0487137 
0.0279024 
0.0127354 
0.00339983 
1.27681e-05 
0.00262031 
0.0111967 
0.0256443 
0.0457951 
0.071412 
0.102192 
0.137769 
0.177719 
0.221565 
0.268781 
0.318802 
0.371025 
0.424822 
0.479544 
0.53453 
0.589115 
0.642637 
0.694448 
0.743916 
0.79044 
0.833453 
0.872429 
0.906891 
0.936415 
0.960637 
0.979258 
0.992046 
0.99884 
0.999551 
0.994165 
0.982743 
0.965418 
0.942398 
0.913957 
0.880441 
0.842254 
0.79986 
0.753777 
0.704565 
0.652826 
0.599194 
0.544327 
0.488898 
0.433589 
0.379081 
0.326046 
0.275141 
0.226995 
0.182206 
0.141328 
0.104872 
0.0732916 
0.0469828 
0.0262758 
0.0114324 
0.00264177 
1.85084e-05 
0.0036007 
0.0133495 
0.0291491 
0.0508087 
0.078064 
0.110581 
0.147958 
0.189735 
0.235395 
0.28437 
0.336053 
0.389799 
0.44494 
0.500785 
0.556638 
0.611798 
0.665573 
0.717288 
0.766292 
0.811967 
0.853736 
0.891072 
0.9235 
0.950608 
0.972049 
0.98755 
0.996907 
1 
0.996782 
0.987288 
0.971634 
0.950011 
0.922687 
0.890005 
0.852372 
0.810261 
0.764204 
0.714779 
0.662613 
0.608365 
0.552724 
0.496395 
0.440096 
0.384543 
0.330445 
0.278493 
0.229351 
0.18365 
0.141977 
0.104867 
0.0727989 
0.0461882 
0.0253801 
0.0106464 
0.00218124 
9.88133e-05 
0.0044315 
0.0151293 
0.0320605 
0.0550128 
0.0836963 
0.117747 
0.156731 
0.20015 
0.247448 
0.298019 
0.351212 
0.406342 
0.4627 
0.519556 
0.576176 
0.631826 
0.685784 
0.737351 
0.785853 
0.83066 
0.871186 
0.906901 
0.937336 
0.96209 
0.980837 
0.993327 
0.999392 
0.998946 
0.991991 
0.978611 
0.958975 
0.933335 
0.90202 
0.865435 
0.824055 
0.778418 
0.729117 
0.676798 
0.622142 
0.565868 
0.508711 
0.451423 
0.394757 
0.33946 
0.286262 
0.235864 
0.188934 
0.146095 
0.107915 
0.0749023 
0.0474982 
0.0260698 
0.0109059 
0.00221262 
0.000110816 
0.00463409 
0.0157282 
0.0332517 
0.0569775 
0.0865957 
0.121718 
0.161882 
0.206557 
0.255152 
0.307024 
0.361483 
0.417806 
0.475242 
0.533026 
0.590384 
0.646551 
0.700774 
0.752324 
0.80051 
0.844683 
0.884247 
0.918666 
0.947476 
0.970283 
0.986776 
0.996728 
0.999999 
0.99654 
0.986391 
0.969683 
0.946635 
0.917555 
0.882828 
0.842919 
0.798363 
0.749759 
0.697761 
0.643071 
0.586426 
0.528594 
0.470357 
0.412505 
0.355826 
0.301089 
0.24904 
0.200391 
0.155806 
0.115895 
0.0812076 
0.0522199 
0.0293326 
0.0128635 
0.00304295 
1.08687e-05 
0.00381455 
0.0144078 
0.0316515 
0.055315 
0.0850796 
0.120542 
0.161222 
0.206563 
0.255949 
0.308702 
0.364102 
0.421387 
0.47977 
0.538449 
0.596615 
0.653464 
0.708212 
0.760101 
0.808412 
0.852473 
0.891671 
0.925461 
0.953369 
0.975005 
0.990061 
0.998325 
0.999676 
0.994089 
0.981635 
0.962483 
0.936892 
0.905214 
0.867884 
0.825418 
0.778404 
0.727492 
0.673392 
0.616855 
0.558669 
0.499646 
0.440612 
0.382392 
0.325803 
0.271639 
0.220661 
0.173587 
0.131082 
0.0937456 
0.0621073 
0.0366166 
0.0176375 
0.00544255 
0.000209217 
0.00201715 
0.0108468 
0.0265795 
0.0489991 
0.0777945 
0.112564 
0.152822 
0.198002 
0.24747 
0.300528 
0.356427 
0.414379 
0.47356 
0.533134 
0.592254 
0.65008 
0.705787 
0.758583 
0.807712 
0.852473 
0.892223 
0.926391 
0.954486 
0.976102 
0.990923 
0.998733 
0.999413 
0.992949 
0.979427 
0.959035 
0.932058 
0.898879 
0.859968 
0.815879 
0.767241 
0.714749 
0.659154 
0.601255 
0.541881 
0.481888 
0.42214 
0.363497 
0.306807 
0.252891 
0.202528 
0.156451 
0.115327 
0.0797581 
0.0502619 
0.0272711 
0.0111245 
0.00206175 
0.000220265 
0.00563279 
0.0182268 
0.0378251 
0.0641488 
0.0968203 
0.135369 
0.17924 
0.227796 
0.280335 
0.336092 
0.394258 
0.453983 
0.514398 
0.574619 
0.633764 
0.690969 
0.745392 
0.796235 
0.842748 
0.884247 
0.920117 
0.949828 
0.972937 
0.9891 
0.998073 
0.999718 
0.994005 
0.981011 
0.960923 
0.934031 
0.900726 
0.861494 
0.816911 
0.76763 
0.714378 
0.657939 
0.599145 
0.538867 
0.477996 
0.417434 
0.358082 
0.30082 
0.246501 
0.195936 
0.149879 
0.10902 
0.0739699 
0.0452572 
0.0233145 
0.00847474 
0.000965055 
0.000903629 
0.00829749 
0.0230422 
0.0449234 
0.0736195 
0.108706 
0.149664 
0.195883 
0.246675 
0.301281 
0.358885 
0.418624 
0.479603 
0.540904 
0.601607 
0.660797 
0.717582 
0.771103 
0.820551 
0.865178 
0.904304 
0.937336 
0.963768 
0.983196 
0.995321 
0.999952 
0.997014 
0.986546 
0.968698 
0.943737 
0.912035 
0.874068 
0.830408 
0.781714 
0.728723 
0.672236 
0.613112 
0.552249 
0.490573 
0.429024 
0.368542 
0.31005 
0.254444 
0.202575 
0.155241 
0.113169 
0.0770064 
0.0473131 
0.0245488 
0.00906838 
0.00111511 
0.000817188 
0.00818539 
0.0231127 
0.0453757 
0.0746379 
0.110455 
0.152279 
0.199473 
0.251312 
0.307001 
0.365683 
0.426454 
0.488378 
0.550499 
0.611855 
0.671497 
0.728499 
0.781977 
0.8311 
0.875101 
0.913293 
0.945081 
0.969964 
0.98755 
0.997559 
0.999831 
0.994324 
0.981116 
0.960409 
0.932517 
0.897872 
0.857007 
0.810557 
0.759242 
0.703861 
0.645277 
0.584404 
0.522193 
0.459617 
0.397658 
0.337288 
0.279455 
0.225068 
0.174986 
0.129998 
0.0908165 
0.0580621 
0.0322556 
0.0138091 
0.003019 
6.16918e-05 
0.00499002 
0.0177325 
0.0380941 
0.0657592 
0.100296 
0.141165 
0.187722 
0.239237 
0.294896 
0.353821 
0.41508 
0.477703 
0.540696 
0.603059 
0.663801 
0.721954 
0.776592 
0.826841 
0.871898 
0.911041 
0.94364 
0.969172 
0.987222 
0.997497 
0.999826 
0.994165 
0.9806 
0.95934 
0.93072 
0.895192 
0.853322 
0.805774 
0.753307 
0.696761 
0.637039 
0.575099 
0.511936 
0.448564 
0.386003 
0.325261 
0.267319 
0.213113 
0.16352 
0.119345 
0.0813037 
0.0500169 
0.0259951 
0.00963276 
0.00120057 
0.000841304 
0.00856714 
0.0242592 
0.0476694 
0.078424 
0.11603 
0.159881 
0.20927 
0.263398 
0.321389 
0.382303 
0.445148 
0.508903 
0.57253 
0.634991 
0.695265 
0.752368 
0.805363 
0.853381 
0.895633 
0.931424 
0.960163 
0.981373 
0.994701 
0.999923 
0.996945 
0.985812 
0.966699 
0.939913 
0.90589 
0.865183 
0.818457 
0.766476 
0.710092 
0.650231 
0.587878 
0.524059 
0.459826 
0.39624 
0.334352 
0.275186 
0.219724 
0.168885 
0.123515 
0.0843704 
0.0521044 
0.0272575 
0.0102477 
0.00136358 
0.000758893 
0.00845018 
0.024316 
0.0480988 
0.0794089 
0.117731 
0.162431 
0.21277 
0.267913 
0.326942 
0.388876 
0.452682 
0.517295 
0.581636 
0.644628 
0.705214 
0.76238 
0.815164 
0.862678 
0.904122 
0.938794 
0.966107 
0.985597 
0.996931 
0.999911 
0.99448 
0.980724 
0.958869 
0.929275 
0.892436 
0.848968 
0.799599 
0.745158 
0.686562 
0.624797 
0.560906 
0.495968 
0.431082 
0.367346 
0.305842 
0.247614 
0.193653 
0.144878 
0.102121 
0.0661127 
0.0374711 
0.0166887 
0.00412532 
1.03605e-06 
0.00439263 
0.0172318 
0.0383061 
0.0672623 
0.103612 
0.146741 
0.195916 
0.250302 
0.308973 
0.370928 
0.435108 
0.500417 
0.565735 
0.629942 
0.691936 
0.750652 
0.805077 
0.854275 
0.897394 
0.933689 
0.96253 
0.983415 
0.995978 
0.999995 
0.995391 
0.98224 
0.960761 
0.931319 
0.894416 
0.850686 
0.800878 
0.745852 
0.686554 
0.62401 
0.559301 
0.493547 
0.427888 
0.363465 
0.301396 
0.242763 
0.188587 
0.139814 
0.0972965 
0.0617801 
0.0338885 
0.0141138 
0.00280683 
0.00017136 
0.00625997 
0.0209729 
0.0440597 
0.075123 
0.113626 
0.158899 
0.210157 
0.266504 
0.326958 
0.390461 
0.455902 
0.522134 
0.587994 
0.652324 
0.713992 
0.771912 
0.825062 
0.872502 
0.913392 
0.947008 
0.972749 
0.990157 
0.998918 
0.998871 
0.99001 
0.972484 
0.946598 
0.912802 
0.871691 
0.823985 
0.770526 
0.712256 
0.650207 
0.585477 
0.519213 
0.45259 
0.386794 
0.322995 
0.262329 
0.205879 
0.154653 
0.109568 
0.0714336 
0.0409337 
0.0186188 
0.00489366 
9.79192e-06 
0.00406113 
0.0169819 
0.0385477 
0.0683788 
0.105947 
0.150586 
0.201499 
0.257779 
0.318419 
0.382335 
0.44838 
0.515369 
0.582099 
0.647368 
0.710001 
0.768868 
0.822905 
0.871135 
0.912684 
0.946797 
0.972853 
0.990375 
0.999039 
0.998684 
0.989308 
0.971075 
0.944307 
0.909484 
0.867231 
0.818308 
0.763599 
0.704091 
0.640862 
0.575058 
0.507873 
0.440529 
0.37425 
0.310244 
0.249678 
0.19366 
0.143213 
0.0992618 
0.0626137 
0.0339431 
0.0137797 
0.00249841 
0.00031203 
0.00726734 
0.0232438 
0.0479555 
0.080956 
0.121647 
0.169287 
0.223007 
0.281826 
0.344667 
0.410378 
0.477753 
0.545554 
0.612533 
0.677456 
0.739126 
0.796403 
0.848229 
0.893642 
0.931801 
0.961994 
0.983658 
0.996387 
0.999937 
0.994238 
0.979387 
0.955653 
0.923469 
0.883425 
0.836259 
0.782842 
0.724159 
0.661297 
0.595422 
0.527757 
0.459559 
0.392097 
0.326628 
0.264373 
0.206496 
0.154078 
0.108102 
0.0694313 
0.0387932 
0.0167661 
0.0037682 
4.9233e-05 
0.00568559 
0.0205786 
0.044456 
0.0768769 
0.11724 
0.164793 
0.218649 
0.277802 
0.341143 
0.407486 
0.475585 
0.54416 
0.61192 
0.677589 
0.739927 
0.797758 
0.849986 
0.895623 
0.933802 
0.963796 
0.985033 
0.997104 
0.999775 
0.992989 
0.976866 
0.951706 
0.917978 
0.876317 
0.827506 
0.772467 
0.712241 
0.647968 
0.580867 
0.512212 
0.443308 
0.375466 
0.30998 
0.248099 
0.191005 
0.139791 
0.0954373 
0.058797 
0.0305751 
0.0113169 
0.00139717 
0.00101245 
0.010177 
0.0287222 
0.0562997 
0.0923874 
0.136299 
0.187199 
0.244115 
0.305958 
0.371543 
0.439614 
0.508862 
0.577956 
0.645566 
0.710389 
0.771173 
0.826746 
0.87603 
0.91807 
0.95205 
0.977307 
0.993348 
0.999854 
0.996695 
0.983923 
0.961779 
0.930686 
0.891239 
0.844197 
0.790468 
0.731089 
0.667208 
0.600065 
0.53096 
0.461238 
0.392252 
0.325348 
0.261828 
0.202933 
0.149813 
0.10351 
0.064931 
0.0348347 
0.0138149 
0.00228884 
0.000488583 
0.00845631 
0.0260431 
0.0529117 
0.0885424 
0.132243 
0.183164 
0.24031 
0.302566 
0.368712 
0.437452 
0.507437 
0.577293 
0.645646 
0.711148 
0.772509 
0.828518 
0.878066 
0.920172 
0.954 
0.978877 
0.994305 
0.999973 
0.995762 
0.981747 
0.9582 
0.92558 
0.884525 
0.835844 
0.780495 
0.719571 
0.654277 
0.585906 
0.515813 
0.445389 
0.376034 
0.309128 
0.246003 
0.187919 
0.136035 
0.0913903 
0.0548792 
0.0272357 
0.00901762 
0.000595307 
0.00214387 
0.0136394 
0.0348593 
0.0653859 
0.104615 
0.151768 
0.205906 
0.265949 
0.330697 
0.398856 
0.46906 
0.539902 
0.60996 
0.677824 
0.742129 
0.801581 
0.854978 
0.901241 
0.939435 
0.968783 
0.988688 
0.998741 
0.998733 
0.988657 
0.96871 
0.939287 
0.900976 
0.854547 
0.800932 
0.741213 
0.676594 
0.608382 
0.537956 
0.466745 
0.396191 
0.327728 
0.262749 
0.202575 
0.148435 
0.101432 
0.0625285 
0.0325226 
0.0120313 
0.00147907 
0.00108787 
0.0108728 
0.0306414 
0.0599971 
0.0983468 
0.144913 
0.19875 
0.258762 
0.323724 
0.39231 
0.463117 
0.534697 
0.605583 
0.674319 
0.739494 
0.799766 
0.853896 
0.900766 
0.939407 
0.969018 
0.988985 
0.998889 
0.998519 
0.987876 
0.967172 
0.936827 
0.89746 
0.849879 
0.795059 
0.734129 
0.668345 
0.599063 
0.527715 
0.455777 
0.384739 
0.316072 
0.251203 
0.191479 
0.138144 
0.0923098 
0.0549326 
0.0267956 
0.0084901 
0.000403753 
0.0027119 
0.0153737 
0.0381326 
0.0705214 
0.111871 
0.161326 
0.21786 
0.280297 
0.347337 
0.417583 
0.489568 
0.561788 
0.632731 
0.700912 
0.7649 
0.823353 
0.87504 
0.918872 
0.953926 
0.979458 
0.994926 
0.999998 
0.994561 
0.97872 
0.952802 
0.917347 
0.873094 
0.820969 
0.762066 
0.697623 
0.628995 
0.557628 
0.485028 
0.412728 
0.342256 
0.275104 
0.212695 
0.156353 
0.107276 
0.0665088 
0.0349208 
0.0131884 
0.00177949 
0.000943326 
0.0107049 
0.0308642 
0.0609998 
0.100478 
0.148464 
0.203944 
0.265741 
0.332543 
0.402929 
0.475401 
0.548415 
0.620411 
0.689853 
0.755255 
0.815216 
0.868451 
0.913816 
0.950335 
0.97722 
0.993888 
0.999975 
0.995344 
0.980086 
0.954521 
0.919192 
0.874851 
0.822444 
0.763093 
0.698069 
0.628768 
0.55668 
0.483354 
0.41037 
0.339302 
0.271684 
0.208977 
0.152538 
0.103592 
0.0631996 
0.0322408 
0.0113914 
0.00110952 
0.0016248 
0.0129335 
0.0347978 
0.0667512 
0.108107 
0.157975 
0.215279 
0.278778 
0.347098 
0.418757 
0.492198 
0.565826 
0.638038 
0.70726 
0.771982 
0.830792 
0.882402 
0.925681 
0.95968 
0.98365 
0.99706 
0.99961 
0.991238 
0.972118 
0.942663 
0.903509 
0.855508 
0.799706 
0.737321 
0.669717 
0.598373 
0.524854 
0.450772 
0.377756 
0.30741 
0.241285 
0.180836 
0.1274 
0.0821576 
0.0461109 
0.0200608 
0.00458868 
4.28692e-05 
0.00653111 
0.0239176 
0.0518255 
0.0896451 
0.136547 
0.191499 
0.253292 
0.32056 
0.391819 
0.465491 
0.539944 
0.613528 
0.684609 
0.751608 
0.813033 
0.867515 
0.91384 
0.95097 
0.978074 
0.994542 
0.999999 
0.994318 
0.977616 
0.950259 
0.91285 
0.866217 
0.811397 
0.749607 
0.682224 
0.610752 
0.536787 
0.461981 
0.38801 
0.316532 
0.249149 
0.187376 
0.132601 
0.0860593 
0.0488004 
0.0216676 
0.00527739 
5.44418e-06 
0.00597774 
0.0230674 
0.0508971 
0.0888473 
0.13607 
0.191506 
0.253911 
0.321883 
0.393889 
0.468308 
0.543459 
0.617645 
0.689186 
0.756464 
0.817953 
0.872256 
0.918139 
0.954556 
0.980676 
0.995899 
0.999872 
0.992498 
0.973937 
0.944603 
0.905155 
0.856485 
0.799693 
0.736066 
0.66705 
0.594213 
0.519213 
0.443757 
0.369569 
0.298341 
0.231701 
0.171176 
0.118152 
0.0738472 
0.03928 
0.0152482 
0.0023089 
0.000765831 
0.0106619 
0.0317777 
0.0636365 
0.105514 
0.156457 
0.215299 
0.280696 
0.351148 
0.425038 
0.500668 
0.5763 
0.650191 
0.720639 
0.786018 
0.844817 
0.895674 
0.937413 
0.969062 
0.989884 
0.999392 
0.997357 
0.983819 
0.959085 
0.923718 
0.878531 
0.824565 
0.763064 
0.695451 
0.623288 
0.548248 
0.472071 
0.396527 
0.323371 
0.254305 
0.190939 
0.134751 
0.0870534 
0.0489629 
0.0213734 
0.00493468 
3.75592e-05 
0.00680383 
0.0250832 
0.0544563 
0.0942443 
0.143524 
0.20115 
0.265778 
0.335902 
0.409883 
0.485991 
0.562444 
0.63745 
0.709248 
0.776152 
0.836588 
0.889133 
0.932547 
0.965803 
0.988113 
0.998946 
0.998038 
0.985403 
0.961331 
0.926383 
0.881374 
0.82736 
0.76561 
0.697577 
0.624862 
0.549182 
0.472322 
0.396101 
0.322321 
0.252731 
0.18898 
0.132584 
0.0848834 
0.0470147 
0.0198827 
0.00413822 
0.000162486 
0.00805755 
0.0276435 
0.0584624 
0.0997886 
0.150646 
0.209829 
0.275935 
0.347393 
0.422504 
0.499478 
0.576482 
0.651677 
0.723267 
0.78954 
0.848908 
0.899948 
0.941433 
0.972366 
0.991999 
0.999853 
0.995734 
0.979733 
0.952225 
0.913863 
0.865561 
0.808471 
0.74396 
0.673573 
0.598997 
0.522025 
0.444507 
0.368307 
0.295263 
0.227136 
0.165571 
0.112056 
0.067889 
0.0341406 
0.0116327 
0.000916259 
0.00225772 
0.0156325 
0.0407247 
0.076935 
0.123394 
0.178983 
0.242361 
0.311997 
0.386207 
0.463193 
0.541088 
0.618003 
0.692068 
0.761481 
0.824552 
0.879744 
0.925707 
0.961318 
0.985703 
0.998259 
0.998675 
0.986931 
0.963306 
0.92837 
0.882968 
0.828202 
0.765405 
0.696106 
0.621996 
0.544886 
0.466661 
0.389236 
0.314507 
0.244309 
0.180366 
0.124249 
0.0773418 
0.040801 
0.0155308 
0.0021594 
0.00102313 
0.0121577 
0.035297 
0.0698792 
0.11506 
0.169733 
0.232557 
0.301988 
0.376319 
0.453716 
0.532273 
0.610049 
0.685123 
0.755637 
0.819844 
0.876151 
0.923161 
0.959703 
0.984866 
0.998018 
0.998826 
0.987262 
0.963605 
0.928435 
0.882617 
0.827284 
0.763805 
0.693753 
0.618866 
0.541005 
0.462106 
0.384135 
0.309035 
0.23868 
0.174827 
0.119073 
0.0728163 
0.0372169 
0.0131712 
0.00128738 
0.00187031 
0.0149133 
0.0400978 
0.0768011 
0.124111 
0.180849 
0.245599 
0.316742 
0.392498 
0.470967 
0.550182 
0.628153 
0.70292 
0.772601 
0.83544 
0.889853 
0.934463 
0.968141 
0.990033 
0.999578 
0.996529 
0.980954 
0.953239 
0.914075 
0.864444 
0.805595 
0.739008 
0.666363 
0.589494 
0.510344 
0.430916 
0.353221 
0.279229 
0.210819 
0.14973 
0.0975151 
0.0555067 
0.0247775 
0.00611543 
2.31216e-06 
0.00660148 
0.025753 
0.0569775 
0.0994874 
0.152207 
0.2138 
0.282701 
0.357158 
0.435275 
0.51506 
0.594476 
0.671497 
0.74415 
0.810577 
0.869074 
0.918139 
0.956511 
0.983201 
0.997516 
0.999083 
0.987854 
0.964108 
0.928448 
0.88178 
0.825297 
0.760445 
0.688884 
0.612451 
0.533109 
0.452899 
0.373885 
0.298103 
0.227508 
0.163923 
0.108993 
0.0641406 
0.0305289 
0.00903347 
0.000217044 
0.0043154 
0.0212306 
0.0505331 
0.0914724 
0.142996 
0.203776 
0.272243 
0.346627 
0.425004 
0.505343 
0.58556 
0.663571 
0.737351 
0.804978 
0.864691 
0.914932 
0.954389 
0.982027 
0.99712 
0.999266 
0.988402 
0.964803 
0.929077 
0.882148 
0.825234 
0.759815 
0.687595 
0.610458 
0.530417 
0.449564 
0.370014 
0.29385 
0.22307 
0.159531 
0.104903 
0.0606233 
0.027861 
0.00748238 
3.02523e-05 
0.00570829 
0.0243754 
0.0555489 
0.0984167 
0.151858 
0.214474 
0.28462 
0.360453 
0.43998 
0.521105 
0.601689 
0.679608 
0.752801 
0.819335 
0.877445 
0.925593 
0.962499 
0.987179 
0.998973 
0.997562 
0.982974 
0.955587 
0.91612 
0.865612 
0.805396 
0.737063 
0.662423 
0.583454 
0.502252 
0.420973 
0.341779 
0.266778 
0.197969 
0.137186 
0.0860546 
0.0459423 
0.0179254 
0.00275828 
0.000853493 
0.01227 
0.0367111 
0.073532 
0.121756 
0.180102 
0.247014 
0.320709 
0.399217 
0.48044 
0.562203 
0.642316 
0.71863 
0.789095 
0.851819 
0.905111 
0.947536 
0.977947 
0.995519 
0.999772 
0.990585 
0.968194 
0.933197 
0.886526 
0.829433 
0.763449 
0.690349 
0.6121 
0.53081 
0.448672 
0.367903 
0.290687 
0.219113 
0.15512 
0.100442 
0.0565665 
0.0246864 
0.00567299 
4.91155e-05 
0.00797537 
0.0292451 
0.0632893 
0.109192 
0.165714 
0.231327 
0.304253 
0.382514 
0.463986 
0.546455 
0.627675 
0.705436 
0.777617 
0.842248 
0.897562 
0.942046 
0.974479 
0.993969 
0.999975 
0.992327 
0.971223 
0.937234 
0.891281 
0.834613 
0.768776 
0.695566 
0.616985 
0.535182 
0.452398 
0.370904 
0.292935 
0.220633 
0.155988 
0.10078 
0.0565316 
0.0244659 
0.00547218 
8.08885e-05 
0.00844864 
0.0303533 
0.0651997 
0.112035 
0.169576 
0.236241 
0.310197 
0.389407 
0.471687 
0.554765 
0.636346 
0.714174 
0.786094 
0.850112 
0.904452 
0.947603 
0.978363 
0.995872 
0.999637 
0.989545 
0.965867 
0.929253 
0.880712 
0.821585 
0.75351 
0.678372 
0.598258 
0.515394 
0.432086 
0.350652 
0.273362 
0.202373 
0.139669 
0.0870014 
0.0458477 
0.0173629 
0.0023501 
0.00123681 
0.0140624 
0.0404767 
0.079749 
0.130788 
0.192172 
0.262189 
0.338881 
0.420104 
0.503584 
0.586979 
0.66795 
0.744223 
0.813653 
0.874285 
0.92441 
0.962613 
0.987812 
0.99929 
0.996716 
0.980154 
0.950062 
0.90728 
0.853007 
0.788767 
0.716367 
0.637844 
0.555414 
0.471402 
0.388182 
0.308106 
0.233443 
0.166306 
0.108602 
0.0619698 
0.027737 
0.00688118 
1.54776e-06 
0.00730154 
0.0285824 
0.0632485 
0.110323 
0.168477 
0.236063 
0.311167 
0.391655 
0.475242 
0.55955 
0.64218 
0.720775 
0.793094 
0.857072 
0.910878 
0.952973 
0.982147 
0.997559 
0.998762 
0.985713 
0.958775 
0.918712 
0.866662 
0.804107 
0.732833 
0.654875 
0.572464 
0.48796 
0.403784 
0.322352 
0.246003 
0.176932 
0.117127 
0.0683111 
0.0318954 
0.00893386 
9.50196e-05 
0.00564158 
0.0254223 
0.0588759 
0.105046 
0.162611 
0.229915 
0.305024 
0.385774 
0.469838 
0.55479 
0.638175 
0.717582 
0.790713 
0.855449 
0.909912 
0.952518 
0.982027 
0.997576 
0.998706 
0.985377 
0.957965 
0.917259 
0.864433 
0.801012 
0.728834 
0.649992 
0.566773 
0.481595 
0.396937 
0.315262 
0.238951 
0.17023 
0.111107 
0.0633097 
0.02824 
0.00692836 
4.83659e-06 
0.00768005 
0.0297383 
0.0655434 
0.114057 
0.173867 
0.24323 
0.320122 
0.402296 
0.487348 
0.572787 
0.656109 
0.734869 
0.806754 
0.86965 
0.921704 
0.961383 
0.987512 
0.999316 
0.99644 
0.978959 
0.947379 
0.902622 
0.845998 
0.779169 
0.704098 
0.622995 
0.538249 
0.452357 
0.367855 
0.287239 
0.212894 
0.14702 
0.091569 
0.0481885 
0.0181685 
0.0024056 
0.00137473 
0.015115 
0.0432278 
0.0848881 
0.138868 
0.203573 
0.277089 
0.357238 
0.441643 
0.527799 
0.613145 
0.695142 
0.771349 
0.839496 
0.897547 
0.943768 
0.976775 
0.995577 
0.999604 
0.988728 
0.963265 
0.923967 
0.871999 
0.808906 
0.736569 
0.657144 
0.573003 
0.486661 
0.400703 
0.317701 
0.240146 
0.170363 
0.110449 
0.0622084 
0.027094 
0.00616779 
6.62476e-05 
0.00898122 
0.0326535 
0.0703799 
0.121034 
0.183099 
0.254714 
0.333728 
0.417765 
0.504296 
0.590714 
0.674413 
0.752867 
0.823704 
0.884782 
0.934251 
0.970609 
0.99275 
0.999997 
0.99212 
0.969351 
0.93237 
0.882288 
0.820616 
0.749215 
0.670245 
0.586096 
0.499319 
0.412547 
0.328413 
0.249475 
0.178136 
0.116567 
0.0666466 
0.0299008 
0.00745497 
8.26174e-07 
0.00777395 
0.0305462 
0.0676321 
0.117909 
0.179851 
0.251574 
0.330894 
0.415394 
0.502495 
0.589535 
0.673855 
0.752874 
0.82417 
0.885557 
0.935149 
0.971422 
0.993255 
0.99997 
0.991355 
0.967663 
0.929614 
0.878367 
0.815489 
0.742906 
0.662843 
0.577757 
0.490263 
0.403052 
0.31881 
0.240131 
0.169444 
0.108931 
0.0604635 
0.0255438 
0.00525677 
0.000236982 
0.0106481 
0.0361773 
0.0760443 
0.129025 
0.193488 
0.267445 
0.348614 
0.434485 
0.522402 
0.609641 
0.693498 
0.771371 
0.84084 
0.899746 
0.946254 
0.978913 
0.996699 
0.999053 
0.985891 
0.957615 
0.915096 
0.859648 
0.792992 
0.717197 
0.63462 
0.547831 
0.459534 
0.372483 
0.289395 
0.212866 
0.145291 
0.0887853 
0.0451215 
0.015672 
0.00136605 
0.00265986 
0.0195217 
0.0514324 
0.0974008 
0.155994 
0.225383 
0.303397 
0.387594 
0.475334 
0.563865 
0.650407 
0.732239 
0.806787 
0.871702 
0.924937 
0.96481 
0.990058 
0.999878 
0.993953 
0.972459 
0.936067 
0.885914 
0.823576 
0.751014 
0.670512 
0.58461 
0.496018 
0.407536 
0.321961 
0.242002 
0.170193 
0.108811 
0.0598062 
0.0247385 
0.00472673 
0.000413915 
0.0119456 
0.0389649 
0.0806227 
0.135605 
0.202172 
0.278215 
0.361322 
0.448855 
0.538031 
0.626014 
0.710001 
0.787315 
0.85549 
0.912348 
0.956069 
0.985252 
0.998957 
0.996738 
0.978657 
0.945283 
0.897674 
0.837343 
0.766214 
0.686554 
0.60091 
0.512019 
0.422727 
0.335894 
0.254305 
0.180578 
0.117083 
0.0658631 
0.0285685 
0.00640484 
9.25855e-05 
0.00984338 
0.0353527 
0.0758091 
0.129919 
0.195949 
0.27178 
0.354976 
0.442858 
0.532599 
0.621306 
0.706116 
0.784291 
0.853304 
0.910921 
0.955276 
0.984927 
0.998907 
0.996757 
0.978536 
0.944825 
0.896707 
0.835732 
0.763869 
0.683441 
0.59705 
0.507496 
0.417682 
0.330524 
0.248852 
0.175323 
0.112331 
0.0619294 
0.0257637 
0.00501839 
0.000377272 
0.0120003 
0.039518 
0.0820426 
0.138196 
0.206157 
0.283713 
0.36834 
0.45728 
0.547631 
0.636443 
0.720812 
0.79798 
0.865418 
0.920915 
0.962648 
0.989244 
0.999823 
0.994031 
0.972047 
0.934583 
0.88286 
0.818567 
0.743806 
0.661028 
0.572945 
0.482449 
0.392514 
0.306097 
0.226042 
0.154986 
0.0952749 
0.0488798 
0.0173366 
0.00169299 
0.00247338 
0.0196611 
0.0526981 
0.100503 
0.161505 
0.233698 
0.314702 
0.401845 
0.492248 
0.582925 
0.670875 
0.753184 
0.827126 
0.890246 
0.940446 
0.976056 
0.995886 
0.999271 
0.986088 
0.956767 
0.912272 
0.854074 
0.784098 
0.704664 
0.61841 
0.528201 
0.437036 
0.347952 
0.263915 
0.187729 
0.121937 
0.0687387 
0.029915 
0.00676943 
8.3012e-05 
0.010088 
0.0364594 
0.0783249 
0.134294 
0.202501 
0.280673 
0.366199 
0.45622 
0.547722 
0.637643 
0.722967 
0.800832 
0.868621 
0.924056 
0.965268 
0.990867 
0.999984 
0.992305 
0.968077 
0.928106 
0.873729 
0.806767 
0.729467 
0.644427 
0.554506 
0.462733 
0.372199 
0.285959 
0.206923 
0.137763 
0.080819 
0.0380204 
0.0108208 
0.000147879 
0.00637147 
0.0292902 
0.0681379 
0.121608 
0.187899 
0.264772 
0.349629 
0.439597 
0.531629 
0.622606 
0.709438 
0.789177 
0.859112 
0.916862 
0.960458 
0.988409 
0.999759 
0.99411 
0.971647 
0.933125 
0.879847 
0.81362 
0.736694 
0.651685 
0.561488 
0.469178 
0.377902 
0.290779 
0.210785 
0.140657 
0.0827983 
0.0391922 
0.0113382 
0.000197747 
0.00616124 
0.0290337 
0.0680408 
0.121855 
0.188639 
0.266111 
0.35162 
0.442234 
0.534848 
0.626281 
0.713394 
0.793189 
0.862921 
0.920185 
0.963006 
0.989903 
0.99994 
0.992763 
0.968611 
0.928305 
0.873228 
0.80527 
0.726768 
0.640428 
0.549223 
0.456303 
0.364876 
0.278102 
0.198984 
0.130263 
0.0743211 
0.0331017 
0.00803959 
1.15987e-05 
0.00930497 
0.0356069 
0.0780146 
0.135066 
0.204789 
0.284771 
0.37224 
0.464162 
0.557345 
0.648552 
0.73461 
0.812523 
0.879575 
0.933426 
0.972196 
0.994523 
0.999624 
0.987309 
0.957999 
0.912708 
0.853007 
0.780973 
0.699115 
0.610286 
0.517588 
0.424259 
0.333562 
0.248671 
0.17256 
0.107899 
0.0569581 
0.0215287 
0.00286116 
0.00161874 
0.0178543 
0.0510076 
0.0999242 
0.162895 
0.237716 
0.321765 
0.412093 
0.505527 
0.598784 
0.688581 
0.771757 
0.84538 
0.906852 
0.954 
0.985155 
0.99921 
0.99566 
0.974621 
0.936827 
0.883603 
0.81682 
0.738831 
0.652387 
0.56054 
0.466536 
0.373698 
0.285315 
0.204519 
0.134174 
0.0767788 
0.0343753 
0.00847474 
4.51061e-06 
0.00927443 
0.0359648 
0.0791372 
0.137267 
0.208296 
0.289706 
0.378609 
0.471846 
0.5661 
0.658018 
0.744325 
0.821945 
0.888105 
0.940442 
0.977082 
0.99671 
0.998616 
0.982723 
0.94959 
0.90039 
0.836873 
0.761302 
0.676374 
0.585122 
0.490808 
0.396806 
0.306483 
0.223077 
0.14958 
0.0886329 
0.0424272 
0.0126286 
0.000314997 
0.00593776 
0.0293044 
0.0695847 
0.12534 
0.194574 
0.274805 
0.36315 
0.456437 
0.551307 
0.644347 
0.732202 
0.811705 
0.879984 
0.934571 
0.973489 
0.995327 
0.999285 
0.985213 
0.953609 
0.905606 
0.842931 
0.767843 
0.683051 
0.59162 
0.496856 
0.40219 
0.31105 
0.226743 
0.152328 
0.0905086 
0.0435351 
0.0131197 
0.000375322 
0.00577412 
0.0291294 
0.0696018 
0.125729 
0.195477 
0.276317 
0.365311 
0.459225 
0.55464 
0.64808 
0.73614 
0.815606 
0.883576 
0.937563 
0.97559 
0.99626 
0.99881 
0.983136 
0.949802 
0.900018 
0.835595 
0.758884 
0.672684 
0.580148 
0.48466 
0.389718 
0.298801 
0.215244 
0.142117 
0.082107 
0.0374234 
0.00971477 
7.57453e-06 
0.00866781 
0.0353868 
0.0791915 
0.13848 
0.211079 
0.294323 
0.385154 
0.480231 
0.576052 
0.669086 
0.755903 
0.833297 
0.898409 
0.948828 
0.982686 
0.998724 
0.99634 
0.975613 
0.937299 
0.882806 
0.814142 
0.73384 
0.644868 
0.550516 
0.454275 
0.359713 
0.270335 
0.189459 
0.12009 
0.0648072 
0.0256708 
0.00414252 
0.00103119 
0.016462 
0.0498709 
0.100025 
0.165066 
0.242583 
0.329696 
0.423166 
0.519514 
0.615151 
0.706512 
0.790188 
0.863053 
0.922383 
0.965955 
0.992135 
0.999936 
0.989057 
0.959894 
0.913529 
0.851688 
0.776675 
0.691294 
0.598735 
0.502461 
0.406079 
0.313201 
0.227311 
0.151636 
0.089019 
0.041818 
0.0118131 
0.000140238 
0.00724743 
0.0328772 
0.0760754 
0.135226 
0.208112 
0.291997 
0.383728 
0.479854 
0.576755 
0.67078 
0.758382 
0.836253 
0.901451 
0.951508 
0.984526 
0.99925 
0.995114 
0.972264 
0.931556 
0.874518 
0.803302 
0.720594 
0.629521 
0.533527 
0.436247 
0.341366 
0.252483 
0.172972 
0.105854 
0.0536833 
0.0184471 
0.00149263 
0.00347338 
0.0243237 
0.0632607 
0.118813 
0.188875 
0.27079 
0.361443 
0.457388 
0.554973 
0.650479 
0.740265 
0.820905 
0.889317 
0.942885 
0.979556 
0.997921 
0.99727 
0.977618 
0.939706 
0.884975 
0.815509 
0.733959 
0.64344 
0.547414 
0.449555 
0.353613 
0.263265 
0.181979 
0.112877 
0.0586158 
0.0212862 
0.00232986 
0.00248421 
0.021753 
0.0594055 
0.114003 
0.183456 
0.265098 
0.355794 
0.452057 
0.550182 
0.646391 
0.736974 
0.818438 
0.887634 
0.941889 
0.9791 
0.997823 
0.997325 
0.977616 
0.939447 
0.884284 
0.814253 
0.732054 
0.640862 
0.544202 
0.445814 
0.349509 
0.259019 
0.177854 
0.109166 
0.0556257 
0.0193183 
0.00166145 
0.00335027 
0.0243289 
0.063792 
0.120215 
0.191414 
0.274625 
0.366619 
0.463819 
0.562444 
0.658654 
0.748699 
0.829067 
0.89662 
0.948717 
0.983319 
0.999065 
0.995332 
0.972256 
0.930728 
0.872362 
0.799431 
0.714779 
0.621712 
0.523867 
0.425071 
0.329192 
0.239988 
0.160957 
0.0952012 
0.045306 
0.0132362 
0.000259142 
0.00689365 
0.0328891 
0.0772344 
0.138196 
0.213388 
0.29986 
0.394217 
0.492751 
0.591587 
0.686834 
0.774739 
0.851836 
0.915082 
0.961975 
0.990659 
0.999993 
0.989599 
0.959878 
0.911992 
0.847826 
0.769905 
0.681303 
0.585518 
0.486335 
0.387676 
0.293446 
0.207378 
0.132885 
0.0729252 
0.0298808 
0.00546723 
0.000662064 
0.0156657 
0.0498927 
0.101994 
0.169909 
0.250949 
0.341898 
0.439148 
0.538833 
0.636991 
0.729713 
0.813307 
0.88444 
0.940271 
0.97857 
0.9978 
0.997185 
0.97674 
0.937271 
0.880343 
0.80822 
0.723777 
0.630379 
0.531755 
0.431845 
0.334645 
0.244043 
0.163669 
0.096746 
0.0459599 
0.0133533 
0.000241908 
0.00716099 
0.0338431 
0.0792277 
0.141503 
0.218178 
0.306182 
0.401984 
0.501741 
0.601443 
0.697084 
0.784814 
0.8611 
0.922866 
0.967618 
0.993546 
0.999596 
0.985513 
0.951856 
0.899973 
0.831946 
0.750514 
0.658956 
0.560964 
0.460494 
0.361604 
0.268291 
0.184332 
0.113126 
0.0575615 
0.0198944 
0.00165872 
0.00360271 
0.0256576 
0.0669395 
0.125784 
0.199815 
0.286034 
0.380951 
0.480716 
0.581281 
0.67856 
0.768599 
0.847736 
0.912746 
0.960978 
0.990463 
0.99999 
0.989161 
0.958408 
0.908974 
0.842864 
0.762765 
0.671937 
0.57408 
0.473184 
0.373366 
0.278703 
0.193064 
0.119954 
0.0623663 
0.0226641 
0.00248004 
0.00264952 
0.0231757 
0.0632281 
0.121176 
0.194654 
0.280658 
0.375669 
0.475795 
0.576929 
0.674923 
0.765752 
0.845683 
0.911427 
0.960274 
0.99021 
0.999994 
0.989213 
0.958301 
0.90852 
0.841912 
0.76121 
0.669733 
0.571245 
0.469805 
0.369593 
0.274745 
0.189177 
0.116427 
0.0595046 
0.0207693 
0.0018307 
0.00348127 
0.0256629 
0.0674681 
0.127177 
0.202326 
0.289813 
0.386019 
0.486963 
0.588464 
0.686313 
0.776452 
0.855137 
0.919097 
0.965669 
0.992912 
0.999683 
0.985693 
0.951511 
0.898551 
0.829004 
0.745757 
0.652268 
0.552424 
0.450381 
0.350388 
0.256614 
0.172972 
0.102954 
0.0494886 
0.0148139 
0.000387097 
0.00682036 
0.0338552 
0.080372 
0.144436 
0.223377 
0.313901 
0.412225 
0.514239 
0.615673 
0.712279 
0.800008 
0.875178 
0.934633 
0.975871 
0.997154 
0.997578 
0.977117 
0.936619 
0.877775 
0.803049 
0.715573 
0.61902 
0.517446 
0.415121 
0.316353 
0.225299 
0.145799 
0.0812076 
0.0342533 
0.00692419 
0.000382169 
0.0149133 
0.0499146 
0.103919 
0.174655 
0.259143 
0.353821 
0.454693 
0.557495 
0.657883 
0.751608 
0.8347 
0.903638 
0.955494 
0.988064 
0.99996 
0.990665 
0.960565 
0.910926 
0.843845 
0.762159 
0.669331 
0.569296 
0.466301 
0.364723 
0.268878 
0.182846 
0.110292 
0.0543081 
0.0172864 
0.00081193 
0.00559649 
0.0314464 
0.0772702 
0.141124 
0.220293 
0.311407 
0.410584 
0.513594 
0.61604 
0.713545 
0.801941 
0.877445 
0.936823 
0.977526 
0.997805 
0.996782 
0.974489 
0.931873 
0.870748 
0.793725 
0.704098 
0.605706 
0.502763 
0.399685 
0.300897 
0.210641 
0.1328 
0.0707231 
0.0270859 
0.00377334 
0.0017979 
0.0212548 
0.061317 
0.12027 
0.195584 
0.284022 
0.381781 
0.484652 
0.5882 
0.68796 
0.779627 
0.859241 
0.923357 
0.969201 
0.994783 
0.998987 
0.981622 
0.943428 
0.886047 
0.811954 
0.724346 
0.627011 
0.524159 
0.420245 
0.319771 
0.227094 
0.146237 
0.080714 
0.033375 
0.00628378 
0.000626354 
0.0166587 
0.0536946 
0.110134 
0.183533 
0.270708 
0.367871 
0.4708 
0.575016 
0.675982 
0.769298 
0.850895 
0.917209 
0.965342 
0.993186 
0.999516 
0.984047 
0.947442 
0.891291 
0.818037 
0.730873 
0.633603 
0.530475 
0.425999 
0.324743 
0.231143 
0.149299 
0.0828029 
0.034574 
0.00673513 
0.000516368 
0.0162008 
0.0531107 
0.109637 
0.183306 
0.270894 
0.368558 
0.472013 
0.576714 
0.678059 
0.771589 
0.853185 
0.919252 
0.966873 
0.993943 
0.999259 
0.982577 
0.944622 
0.887057 
0.812412 
0.723971 
0.625633 
0.521732 
0.416856 
0.315636 
0.222547 
0.141708 
0.0766985 
0.0304022 
0.00487614 
0.00125989 
0.0197239 
0.059461 
0.118721 
0.194886 
0.284589 
0.383858 
0.488295 
0.593267 
0.694116 
0.786362 
0.865903 
0.929202 
0.973435 
0.996629 
0.997741 
0.976712 
0.934467 
0.872876 
0.794673 
0.703333 
0.60292 
0.497903 
0.392964 
0.292782 
0.201828 
0.124166 
0.0632689 
0.0218632 
0.00180785 
0.00400908 
0.028379 
0.0738384 
0.138364 
0.219079 
0.312377 
0.41409 
0.519665 
0.624375 
0.723529 
0.81268 
0.887825 
0.945587 
0.983368 
0.999462 
0.993136 
0.964664 
0.915315 
0.847296 
0.763656 
0.668148 
0.565062 
0.459033 
0.354831 
0.257149 
0.170388 
0.0984616 
0.0446185 
0.0112938 
9.12512e-09 
0.0112567 
0.0445666 
0.0984367 
0.170444 
0.257347 
0.355224 
0.459659 
0.565934 
0.669244 
0.764914 
0.848613 
0.916547 
0.965632 
0.993637 
0.999283 
0.982304 
0.943459 
0.884499 
0.808089 
0.717688 
0.617392 
0.511751 
0.405561 
0.303644 
0.210635 
0.130765 
0.0676742 
0.0242386 
0.00244433 
0.00329339 
0.0267577 
0.0717792 
0.136317 
0.217438 
0.311454 
0.414081 
0.520644 
0.626281 
0.726171 
0.815749 
0.89092 
0.948243 
0.98509 
0.999766 
0.99159 
0.960926 
0.909167 
0.83867 
0.752657 
0.655058 
0.55034 
0.4433 
0.338842 
0.241758 
0.156505 
0.0870014 
0.0364437 
0.0071624 
0.00051219 
0.0168092 
0.055315 
0.11427 
0.190972 
0.281902 
0.382881 
0.489266 
0.596162 
0.698646 
0.791993 
0.871898 
0.93467 
0.977407 
0.998128 
0.995867 
0.970717 
0.923829 
0.857359 
0.774368 
0.678685 
0.574726 
0.467296 
0.361363 
0.261828 
0.173302 
0.099889 
0.0449963 
0.0111755 
3.76165e-06 
0.0120094 
0.0466465 
0.102319 
0.176453 
0.265615 
0.365675 
0.471988 
0.579618 
0.683566 
0.778995 
0.861465 
0.927134 
0.972937 
0.996735 
0.997408 
0.974916 
0.930294 
0.865612 
0.783877 
0.688892 
0.585081 
0.477284 
0.370531 
0.269807 
0.179818 
0.104774 
0.0481885 
0.0127148 
2.1738e-05 
0.0107136 
0.0443007 
0.0992218 
0.172915 
0.261938 
0.362127 
0.468793 
0.576937 
0.681491 
0.777547 
0.860596 
0.926732 
0.972845 
0.996758 
0.997338 
0.974547 
0.929446 
0.864146 
0.781707 
0.686002 
0.581529 
0.473201 
0.366119 
0.265327 
0.175578 
0.101108 
0.045435 
0.0111931 
7.99527e-06 
0.012418 
0.0478481 
0.104636 
0.180108 
0.270708 
0.372159 
0.47967 
0.588159 
0.692493 
0.787733 
0.869367 
0.933523 
0.977152 
0.99818 
0.995598 
0.969519 
0.921168 
0.852829 
0.767737 
0.669922 
0.564023 
0.455068 
0.348231 
0.248591 
0.160889 
0.0893007 
0.0372391 
0.00719069 
0.000595715 
0.017779 
0.0579328 
0.119155 
0.198536 
0.292302 
0.395986 
0.504648 
0.613104 
0.716178 
0.808946 
0.886972 
0.946522 
0.984743 
0.999796 
0.990951 
0.958622 
0.904343 
0.830704 
0.74122 
0.64017 
0.53239 
0.423042 
0.317366 
0.220432 
0.136892 
0.0707618 
0.0252222 
0.00246922 
0.00360572 
0.028588 
0.0762265 
0.144242 
0.229372 
0.327532 
0.434004 
0.543668 
0.651246 
0.751557 
0.839766 
0.911617 
0.963639 
0.993316 
0.999206 
0.981014 
0.939606 
0.876972 
0.796127 
0.700965 
0.59608 
0.486536 
0.377626 
0.274618 
0.182497 
0.105726 
0.0480271 
0.0122037 
1.86012e-07 
0.0120186 
0.0476873 
0.105288 
0.182037 
0.274221 
0.377374 
0.486494 
0.596286 
0.701418 
0.796781 
0.877736 
0.940343 
0.981547 
0.999336 
0.992834 
0.962346 
0.909345 
0.836402 
0.747062 
0.64567 
0.537163 
0.426827 
0.320044 
0.222024 
0.137555 
0.0707661 
0.0249262 
0.00228404 
0.00395631 
0.0298722 
0.0787757 
0.148286 
0.235011 
0.334716 
0.442526 
0.553165 
0.661218 
0.761388 
0.848764 
0.919055 
0.968809 
0.995575 
0.998029 
0.97604 
0.930677 
0.864157 
0.779738 
0.681561 
0.574445 
0.463652 
0.354631 
0.252745 
0.163013 
0.0898558 
0.0368846 
0.00671732 
0.000850559 
0.0195844 
0.0620062 
0.126035 
0.20852 
0.305402 
0.411903 
0.52277 
0.632529 
0.735756 
0.827348 
0.902771 
0.958288 
0.991144 
0.999704 
0.983533 
0.94342 
0.881342 
0.800363 
0.704488 
0.598464 
0.487541 
0.37722 
0.272974 
0.179979 
0.102858 
0.0454455 
0.0106034 
7.28125e-05 
0.0143878 
0.0528479 
0.113551 
0.193488 
0.288688 
0.394421 
0.505427 
0.616178 
0.721158 
0.815132 
0.89341 
0.952082 
0.988213 
0.99999 
0.986814 
0.949333 
0.889406 
0.810018 
0.715127 
0.609469 
0.498322 
0.387243 
0.281788 
0.187239 
0.108331 
0.0490244 
0.0122977 
1.07045e-06 
0.0127618 
0.0499511 
0.109715 
0.189066 
0.28403 
0.389848 
0.501213 
0.612533 
0.718215 
0.812948 
0.891963 
0.951281 
0.987909 
0.999995 
0.986919 
0.949329 
0.889106 
0.809275 
0.713848 
0.607629 
0.495968 
0.384494 
0.278831 
0.184312 
0.105715 
0.0470147 
0.0111843 
4.45306e-05 
0.0141692 
0.0528554 
0.114158 
0.194986 
0.291258 
0.39811 
0.510135 
0.621663 
0.727045 
0.820937 
0.898576 
0.956018 
0.99034 
0.999792 
0.983883 
0.943408 
0.880413 
0.798087 
0.700605 
0.592913 
0.480482 
0.369027 
0.264218 
0.171391 
0.0952749 
0.0397533 
0.0076625 
0.000647491 
0.0190768 
0.0620224 
0.127305 
0.211606 
0.310631 
0.419335 
0.532173 
0.643384 
0.747288 
0.838572 
0.912566 
0.96548 
0.994597 
0.99842 
0.97674 
0.930656 
0.862517 
0.775802 
0.674947 
0.565112 
0.451923 
0.341183 
0.238573 
0.149359 
0.078127 
0.0285406 
0.00315565 
0.00328667 
0.0289381 
0.0788028 
0.150328 
0.239845 
0.342757 
0.453775 
0.567188 
0.677158 
0.778021 
0.864576 
0.932357 
0.977863 
0.998736 
0.99389 
0.963564 
0.909311 
0.833921 
0.741279 
0.63616 
0.523992 
0.410568 
0.30175 
0.203168 
0.119927 
0.0563383 
0.0157032 
0.000135127 
0.0104512 
0.0461284 
0.105329 
0.184995 
0.281005 
0.388386 
0.501573 
0.614695 
0.721879 
0.817558 
0.896758 
0.955356 
0.990298 
0.999757 
0.983231 
0.941567 
0.876923 
0.792653 
0.693135 
0.583545 
0.469587 
0.357198 
0.252236 
0.160176 
0.0858244 
0.0330687 
0.00467058 
0.002123 
0.0255702 
0.073799 
0.1443 
0.2334 
0.336449 
0.448064 
0.562411 
0.67351 
0.775544 
0.863168 
0.931788 
0.977801 
0.998786 
0.993633 
0.9626 
0.907304 
0.830635 
0.736605 
0.630144 
0.516835 
0.402625 
0.293514 
0.195238 
0.112967 
0.0510334 
0.0127035 
3.95917e-06 
0.0136142 
0.0528292 
0.115595 
0.198617 
0.297528 
0.407124 
0.521632 
0.635015 
0.741293 
0.834856 
0.910759 
0.964988 
0.994671 
0.998228 
0.97546 
0.92756 
0.857048 
0.767645 
0.66407 
0.551799 
0.43677 
0.325073 
0.222624 
0.134854 
0.0664211 
0.0209609 
0.000893587 
0.00729441 
0.0398352 
0.0968005 
0.175177 
0.270812 
0.378634 
0.492919 
0.607596 
0.716571 
0.814044 
0.894828 
0.954616 
0.990217 
0.999726 
0.982625 
0.939814 
0.873562 
0.787391 
0.685886 
0.574453 
0.459033 
0.345782 
0.240747 
0.149538 
0.0770332 
0.0271131 
0.0024551 
0.0043882 
0.0328205 
0.0862426 
0.161807 
0.255481 
0.362256 
0.476422 
0.591867 
0.702407 
0.802115 
0.885642 
0.948503 
0.987316 
0.99999 
0.985832 
0.945591 
0.881417 
0.796747 
0.696121 
0.58494 
0.469178 
0.355056 
0.248714 
0.155879 
0.0815512 
0.0297412 
0.00324842 
0.00351094 
0.030526 
0.0828491 
0.15767 
0.250963 
0.357704 
0.472138 
0.588093 
0.699307 
0.799773 
0.884059 
0.947603 
0.986961 
0.999996 
0.98599 
0.94569 
0.881266 
0.796194 
0.695073 
0.583371 
0.467137 
0.352668 
0.246169 
0.153419 
0.0794542 
0.0282956 
0.00272935 
0.00415437 
0.0325047 
0.086252 
0.162487 
0.257076 
0.364884 
0.480055 
0.596327 
0.707374 
0.807151 
0.890219 
0.95205 
0.989265 
0.999826 
0.983147 
0.940124 
0.873094 
0.785702 
0.682708 
0.569727 
0.452924 
0.338675 
0.233223 
0.142334 
0.0709811 
0.0230749 
0.00124507 
0.00669681 
0.0391434 
0.0968203 
0.17658 
0.274064 
0.38394 
0.500191 
0.616447 
0.726335 
0.823825 
0.903563 
0.961166 
0.993463 
0.998669 
0.976487 
0.928123 
0.856226 
0.764737 
0.658678 
0.543876 
0.426645 
0.313434 
0.210478 
0.123449 
0.0571485 
0.0152379 
3.72518e-05 
0.0123957 
0.0516436 
0.115627 
0.200827 
0.30255 
0.415188 
0.532524 
0.64808 
0.755471 
0.848758 
0.922777 
0.973427 
0.997897 
0.994822 
0.96436 
0.908187 
0.829401 
0.732358 
0.622427 
0.505695 
0.388631 
0.277727 
0.179137 
0.0983369 
0.0398188 
0.00684107 
0.00124566 
0.023355 
0.0719523 
0.144348 
0.236526 
0.34337 
0.458941 
0.576813 
0.690427 
0.793454 
0.880152 
0.945686 
0.986395 
0.999998 
0.985727 
0.944365 
0.878208 
0.790938 
0.687417 
0.573417 
0.455302 
0.339667 
0.232975 
0.141194 
0.0694612 
0.0217971 
0.000878134 
0.00788619 
0.0424407 
0.102619 
0.18506 
0.285157 
0.397306 
0.515227 
0.632311 
0.74199 
0.838109 
0.915268 
0.969129 
0.996656 
0.996294 
0.96805 
0.913501 
0.835701 
0.739015 
0.628874 
0.511467 
0.393398 
0.281314 
0.181527 
0.099663 
0.0403414 
0.00691446 
0.00127718 
0.0237591 
0.0731039 
0.146539 
0.239931 
0.348016 
0.464697 
0.583388 
0.697384 
0.800242 
0.886143 
0.950222 
0.988846 
0.99982 
0.982511 
0.937887 
0.868462 
0.77816 
0.672087 
0.556247 
0.437202 
0.321702 
0.216299 
0.126976 
0.0588088 
0.0156761 
3.72518e-05 
0.0127919 
0.0532272 
0.119057 
0.20655 
0.31074 
0.425709 
0.544919 
0.661591 
0.76908 
0.861262 
0.932882 
0.979851 
0.999481 
0.990643 
0.953828 
0.891124 
0.806098 
0.703593 
0.589453 
0.470189 
0.352612 
0.243439 
0.148911 
0.0744399 
0.0242902 
0.00134079 
0.00691585 
0.0407082 
0.100795 
0.183748 
0.284824 
0.398241 
0.517505 
0.635781 
0.746289 
0.842687 
0.919439 
0.972132 
0.997732 
0.994758 
0.963369 
0.905356 
0.824042 
0.724091 
0.611242 
0.49198 
0.373163 
0.261629 
0.163799 
0.0853135 
0.0306992 
0.00311257 
0.00415437 
0.0337764 
0.0902827 
0.170426 
0.269592 
0.382066 
0.501364 
0.620598 
0.732885 
0.831733 
0.911427 
0.967351 
0.996263 
0.99648 
0.967976 
0.912391 
0.832929 
0.734181 
0.621858 
0.502461 
0.382905 
0.27012 
0.170646 
0.0902587 
0.0336283 
0.00405048 
0.00325319 
0.0312945 
0.086558 
0.165845 
0.264558 
0.376968 
0.496546 
0.616341 
0.729385 
0.829098 
0.909672 
0.966406 
0.995989 
0.996686 
0.968444 
0.912897 
0.833272 
0.734203 
0.62146 
0.501615 
0.381659 
0.268596 
0.169029 
0.0887805 
0.0325463 
0.00362282 
0.00371195 
0.0328205 
0.0892577 
0.169733 
0.269547 
0.382864 
0.503056 
0.623085 
0.735919 
0.834943 
0.914347 
0.969467 
0.99706 
0.995496 
0.964856 
0.906925 
0.825094 
0.724159 
0.610041 
0.489442 
0.369447 
0.257112 
0.159046 
0.0810246 
0.0276463 
0.00206327 
0.00579318 
0.0386283 
0.0986464 
0.182322 
0.284733 
0.399849 
0.520887 
0.640709 
0.752245 
0.848908 
0.924985 
0.975976 
0.998858 
0.992268 
0.956583 
0.893901 
0.807917 
0.703708 
0.587433 
0.465967 
0.3465 
0.236106 
0.141328 
0.0677879 
0.0198523 
0.000373377 
0.0105178 
0.0496959 
0.115595 
0.204316 
0.3106 
0.428145 
0.549974 
0.66885 
0.777707 
0.870072 
0.940446 
0.984634 
0.999996 
0.985607 
0.942312 
0.872675 
0.780835 
0.672252 
0.55339 
0.431331 
0.313349 
0.206482 
0.11711 
0.0505735 
0.010852 
0.000328216 
0.0196425 
0.0676531 
0.141503 
0.236789 
0.347824 
0.467973 
0.590055 
0.706764 
0.811115 
0.896855 
0.958842 
0.993354 
0.998313 
0.973408 
0.920122 
0.841636 
0.74265 
0.629092 
0.507773 
0.38597 
0.270998 
0.169765 
0.0883568 
0.0316749 
0.00313594 
0.00446719 
0.0356007 
0.0946756 
0.178148 
0.281005 
0.39706 
0.51933 
0.640452 
0.753127 
0.85056 
0.926872 
0.977452 
0.999238 
0.990904 
0.952941 
0.887629 
0.798901 
0.692106 
0.573691 
0.450806 
0.330878 
0.221161 
0.128295 
0.0579054 
0.0142604 
1.31907e-05 
0.0160383 
0.0613773 
0.133295 
0.227445 
0.338128 
0.45864 
0.581677 
0.699776 
0.805767 
0.893213 
0.956798 
0.992649 
0.998579 
0.974214 
0.921023 
0.842229 
0.742613 
0.628226 
0.506022 
0.383435 
0.267928 
0.166537 
0.0854446 
0.029599 
0.00241381 
0.0055578 
0.0388515 
0.100276 
0.186096 
0.291083 
0.408837 
0.532173 
0.65356 
0.765582 
0.86139 
0.935121 
0.982258 
0.999907 
0.986978 
0.944249 
0.874324 
0.781472 
0.671371 
0.550757 
0.427018 
0.307735 
0.200223 
0.11108 
0.0457811 
0.00834163 
0.00107082 
0.0244271 
0.0769886 
0.155539 
0.255262 
0.370038 
0.492818 
0.616056 
0.732173 
0.834021 
0.915329 
0.971083 
0.99784 
0.993941 
0.959614 
0.896962 
0.809834 
0.703593 
0.584784 
0.460728 
0.33908 
0.227347 
0.132431 
0.0602002 
0.0151252 
1.71903e-06 
0.0157762 
0.0614859 
0.134316 
0.229774 
0.341962 
0.463945 
0.588175 
0.706962 
0.812948 
0.89956 
0.961425 
0.994698 
0.997304 
0.969071 
0.911736 
0.828846 
0.725536 
0.60821 
0.484149 
0.361057 
0.246581 
0.147839 
0.0709768 
0.0207813 
0.000385451 
0.0110701 
0.0521826 
0.121176 
0.213766 
0.324194 
0.445589 
0.570391 
0.690822 
0.799371 
0.889264 
0.954887 
0.992135 
0.998672 
0.974078 
0.919876 
0.83944 
0.737785 
0.621257 
0.497133 
0.373172 
0.257127 
0.156262 
0.0768948 
0.0240021 
0.000906148 
0.0090652 
0.0479805 
0.115226 
0.206597 
0.316376 
0.437685 
0.562918 
0.68422 
0.793976 
0.88529 
0.952422 
0.991144 
0.999013 
0.975522 
0.922136 
0.842199 
0.740728 
0.624099 
0.499646 
0.375199 
0.258593 
0.157176 
0.0773418 
0.0241305 
0.000906148 
0.00914478 
0.0483393 
0.11603 
0.207956 
0.318326 
0.440179 
0.565826 
0.687331 
0.797017 
0.887946 
0.954364 
0.992061 
0.998642 
0.973677 
0.918735 
0.837281 
0.734462 
0.616781 
0.491687 
0.367104 
0.250927 
0.150526 
0.072273 
0.0211413 
0.000385451 
0.0113346 
0.0533062 
0.123647 
0.217902 
0.33009 
0.453091 
0.579089 
0.700075 
0.808352 
0.897028 
0.960451 
0.994575 
0.997217 
0.968194 
0.909345 
0.824406 
0.718781 
0.599194 
0.473268 
0.34903 
0.234407 
0.136719 
0.0622084 
0.0156408 
1.71903e-06 
0.0163024 
0.0635139 
0.13863 
0.236861 
0.351932 
0.476489 
0.602567 
0.722097 
0.827424 
0.911798 
0.969806 
0.997722 
0.993745 
0.958117 
0.89311 
0.802882 
0.693212 
0.571129 
0.444465 
0.32135 
0.209693 
0.116669 
0.0482638 
0.00888348 
0.00107082 
0.0253406 
0.0801443 
0.161968 
0.265556 
0.38425 
0.510411 
0.635919 
0.752686 
0.853185 
0.930932 
0.980906 
0.999872 
0.986596 
0.94192 
0.868717 
0.771701 
0.657128 
0.53239 
0.405544 
0.284786 
0.177924 
0.0918737 
0.0322082 
0.00279797 
0.0055578 
0.0403217 
0.104851 
0.194979 
0.304877 
0.427432 
0.554706 
0.67845 
0.790638 
0.883989 
0.952439 
0.991537 
0.998732 
0.973546 
0.917601 
0.83452 
0.729691 
0.609919 
0.482985 
0.357142 
0.240575 
0.140873 
0.0645311 
0.0165281 
9.52522e-07 
0.0160383 
0.0636079 
0.139622 
0.239137 
0.355673 
0.481637 
0.608815 
0.728909 
0.834077 
0.917449 
0.97357 
0.998765 
0.991375 
0.951871 
0.882822 
0.788733 
0.675747 
0.551249 
0.423381 
0.300512 
0.190689 
0.101108 
0.0376463 
0.00447166 
0.00377026 
0.0356007 
0.0978883 
0.186559 
0.295806 
0.418467 
0.546496 
0.671489 
0.785234 
0.880256 
0.950302 
0.99076 
0.998958 
0.974344 
0.918524 
0.835161 
0.729728 
0.609158 
0.481386 
0.354823 
0.237809 
0.138058 
0.0621517 
0.0151048 
3.08078e-05 
0.0179365 
0.0676531 
0.145912 
0.247556 
0.365884 
0.493086 
0.620761 
0.740471 
0.8443 
0.925378 
0.978331 
0.999648 
0.987904 
0.943864 
0.870433 
0.77246 
0.656428 
0.530015 
0.401598 
0.279688 
0.172371 
0.0867702 
0.0285741 
0.00165463 
0.00781078 
0.0466465 
0.115595 
0.210088 
0.323857 
0.449347 
0.57822 
0.701909 
0.812183 
0.901701 
0.964497 
0.996382 
0.99522 
0.961076 
0.896212 
0.804938 
0.693328 
0.568815 
0.439697 
0.314585 
0.201828 
0.108957 
0.0421776 
0.00595967 
0.00273373 
0.032728 
0.0939508 
0.182322 
0.291944 
0.415493 
0.544711 
0.670953 
0.785771 
0.881472 
0.951641 
0.991569 
0.998569 
0.97216 
0.914098 
0.828265 
0.720406 
0.597749 
0.468517 
0.341382 
0.224879 
0.126836 
0.0538458 
0.0108208 
0.000664221 
0.0240714 
0.0794814 
0.16318 
0.269547 
0.391434 
0.520644 
0.64848 
0.766334 
0.866263 
0.941528 
0.987047 
0.99974 
0.978739 
0.925448 
0.843449 
0.738264 
0.616985 
0.487792 
0.359408 
0.240504 
0.139117 
0.0621073 
0.0146887 
7.90902e-05 
0.0192791 
0.0710026 
0.151762 
0.256102 
0.376968 
0.506181 
0.634991 
0.754671 
0.857107 
0.935347 
0.984078 
0.999983 
0.981971 
0.931251 
0.851253 
0.747397 
0.626727 
0.497434 
0.368299 
0.248099 
0.145008 
0.0660419 
0.0165816 
2.76561e-06 
0.0174461 
0.0677373 
0.147465 
0.25121 
0.371916 
0.501364 
0.630735 
0.75121 
0.85457 
0.93376 
0.983368 
0.999997 
0.9825 
0.932058 
0.852104 
0.748088 
0.627108 
0.497426 
0.367903 
0.247397 
0.144153 
0.065241 
0.0160699 
1.66816e-05 
0.0181932 
0.0693675 
0.150047 
0.254714 
0.376205 
0.506198 
0.635781 
0.756069 
0.858803 
0.936929 
0.985074 
0.999921 
0.980438 
0.92795 
0.846052 
0.740361 
0.618133 
0.487767 
0.358226 
0.238423 
0.136604 
0.0597863 
0.0132669 
0.000261034 
0.0216773 
0.0760532 
0.159654 
0.266726 
0.389897 
0.520678 
0.650048 
0.76908 
0.869554 
0.944526 
0.98881 
0.999334 
0.975359 
0.918529 
0.83276 
0.723971 
0.599679 
0.468475 
0.339437 
0.221495 
0.122821 
0.0502545 
0.00883167 
0.00143434 
0.028588 
0.0884234 
0.176804 
0.287611 
0.413165 
0.544761 
0.673266 
0.789758 
0.886143 
0.955718 
0.99364 
0.997261 
0.966316 
0.902944 
0.811541 
0.698454 
0.571544 
0.439639 
0.311919 
0.197281 
0.103714 
0.0377453 
0.0039816 
0.00478899 
0.0401241 
0.107536 
0.202333 
0.317912 
0.446214 
0.578287 
0.704909 
0.817235 
0.907411 
0.969129 
0.998062 
0.992177 
0.951871 
0.879951 
0.781437 
0.663215 
0.533552 
0.401524 
0.276377 
0.166881 
0.080714 
0.0239252 
0.000506896 
0.0121137 
0.0579446 
0.134797 
0.237288 
0.358234 
0.489149 
0.620842 
0.744062 
0.850148 
0.931636 
0.982789 
0.999998 
0.98204 
0.930166 
0.848012 
0.741352 
0.617685 
0.485715 
0.354735 
0.233974 
0.131948 
0.0558563 
0.0110736 
0.000770473 
0.0256867 
0.0840772 
0.171833 
0.282769 
0.40906 
0.54179 
0.671583 
0.789266 
0.886515 
0.956446 
0.994103 
0.996809 
0.96436 
0.899041 
0.805462 
0.690241 
0.56153 
0.428444 
0.300413 
0.186513 
0.0948277 
0.031866 
0.0021053 
0.00766981 
0.0481777 
0.120766 
0.220293 
0.339698 
0.470507 
0.603428 
0.729013 
0.838331 
0.923602 
0.978751 
0.999843 
0.985365 
0.936333 
0.856226 
0.750739 
0.627375 
0.494921 
0.362812 
0.240468 
0.136616 
0.0586709 
0.0122037 
0.000541798 
0.0245307 
0.0824707 
0.170237 
0.28157 
0.408524 
0.542032 
0.672551 
0.790747 
0.888163 
0.957821 
0.994726 
0.996224 
0.962196 
0.895064 
0.799626 
0.682708 
0.552682 
0.418864 
0.290847 
0.177815 
0.0878818 
0.0275091 
0.00104089 
0.01039 
0.0548982 
0.131382 
0.234358 
0.356435 
0.488848 
0.622077 
0.746544 
0.853292 
0.934633 
0.984704 
0.999888 
0.979081 
0.923767 
0.837918 
0.727709 
0.601074 
0.467137 
0.335554 
0.215816 
0.116567 
0.0449755 
0.00622038 
0.00311163 
0.0358869 
0.102192 
0.197248 
0.314196 
0.44459 
0.579006 
0.707725 
0.821431 
0.911893 
0.972553 
0.999008 
0.989332 
0.944211 
0.866901 
0.762993 
0.640009 
0.506859 
0.373196 
0.248714 
0.142451 
0.0621234 
0.0135734 
0.000337692 
0.0233905 
0.0810703 
0.169199 
0.281381 
0.409471 
0.54416 
0.675653 
0.794382 
0.891703 
0.960523 
0.995821 
0.995015 
0.95815 
0.887899 
0.789369 
0.669733 
0.537706 
0.402913 
0.275186 
0.163849 
0.0770332 
0.0210859 
0.000103873 
0.0156325 
0.0665506 
0.14915 
0.257405 
0.38341 
0.517957 
0.651206 
0.773408 
0.875615 
0.950339 
0.992097 
0.997819 
0.967073 
0.902099 
0.807646 
0.690628 
0.559617 
0.424218 
0.294362 
0.17958 
0.0883045 
0.0272439 
0.000893587 
0.011202 
0.057425 
0.136179 
0.241686 
0.366199 
0.500568 
0.63491 
0.759342 
0.864702 
0.943226 
0.989123 
0.999 
0.972116 
0.910439 
0.818502 
0.703073 
0.572655 
0.436862 
0.305711 
0.188882 
0.0950045 
0.031018 
0.00165872 
0.00910813 
0.0528292 
0.129604 
0.233769 
0.357632 
0.492039 
0.627051 
0.752679 
0.859619 
0.939949 
0.987711 
0.999354 
0.974004 
0.913524 
0.822387 
0.707336 
0.576896 
0.440737 
0.308958 
0.191341 
0.0966222 
0.0318424 
0.00182354 
0.00880817 
0.0522907 
0.129053 
0.2334 
0.357584 
0.492374 
0.627748 
0.753632 
0.860654 
0.940838 
0.988204 
0.999212 
0.97303 
0.911593 
0.81947 
0.703517 
0.572373 
0.435815 
0.304029 
0.186853 
0.0930386 
0.029599 
0.00128318 
0.0102191 
0.0557525 
0.134494 
0.240568 
0.366054 
0.501573 
0.636991 
0.762173 
0.867748 
0.945804 
0.990486 
0.998434 
0.969042 
0.904496 
0.809624 
0.691526 
0.559051 
0.422131 
0.291038 
0.17561 
0.0845195 
0.0246137 
0.00040308 
0.0137192 
0.0635752 
0.146237 
0.255503 
0.383166 
0.519631 
0.654636 
0.778021 
0.880495 
0.954336 
0.993974 
0.99641 
0.961448 
0.891708 
0.792435 
0.671103 
0.536853 
0.399808 
0.270306 
0.158122 
0.0717316 
0.0176662 
2.05819e-05 
0.0201408 
0.0765202 
0.164911 
0.278643 
0.409125 
0.546496 
0.680366 
0.800604 
0.898105 
0.96548 
0.997615 
0.992066 
0.949237 
0.872362 
0.767255 
0.641874 
0.50572 
0.369116 
0.242425 
0.135266 
0.0557794 
0.0100095 
0.00144451 
0.0307484 
0.0957083 
0.1914 
0.310562 
0.44414 
0.581983 
0.713606 
0.828991 
0.919352 
0.977801 
0.999876 
0.983883 
0.931026 
0.84532 
0.733285 
0.603452 
0.465716 
0.330579 
0.20835 
0.108362 
0.0382546 
0.00339009 
0.00644367 
0.0471957 
0.122546 
0.22675 
0.351852 
0.488295 
0.625649 
0.753408 
0.861795 
0.942507 
0.989356 
0.998744 
0.969938 
0.905131 
0.809275 
0.689706 
0.555581 
0.417178 
0.285111 
0.169513 
0.0792594 
0.0212862 
5.52869e-05 
0.01721 
0.0714465 
0.158611 
0.272019 
0.402962 
0.54138 
0.676633 
0.798316 
0.897063 
0.965268 
0.99767 
0.991761 
0.947983 
0.869695 
0.762915 
0.635862 
0.498322 
0.360896 
0.23418 
0.127954 
0.0504194 
0.00757073 
0.00272761 
0.0362775 
0.105643 
0.205479 
0.328082 
0.463986 
0.60269 
0.73347 
0.846209 
0.932181 
0.984722 
0.999756 
0.976104 
0.915585 
0.822873 
0.705138 
0.571494 
0.432293 
0.298325 
0.179979 
0.0864403 
0.0249732 
0.000359269 
0.0145218 
0.0663753 
0.151906 
0.264484 
0.395372 
0.534405 
0.67078 
0.793894 
0.894169 
0.963796 
0.997348 
0.992202 
0.948743 
0.870343 
0.763093 
0.635338 
0.497024 
0.358925 
0.231807 
0.125584 
0.048548 
0.00671732 
0.00336869 
0.038777 
0.110192 
0.212051 
0.336409 
0.47356 
0.612794 
0.743228 
0.854665 
0.938383 
0.987827 
0.999115 
0.971352 
0.906696 
0.810196 
0.689396 
0.553749 
0.413875 
0.280734 
0.164762 
0.0750568 
0.0186619 
1.19436e-05 
0.0205833 
0.0787757 
0.170035 
0.287209 
0.421105 
0.561214 
0.69653 
0.816418 
0.91145 
0.974147 
0.999567 
0.985697 
0.933614 
0.847404 
0.73384 
0.601854 
0.461831 
0.324798 
0.201553 
0.101811 
0.0334443 
0.00185225 
0.0095397 
0.0559141 
0.13733 
0.247376 
0.377374 
0.517069 
0.655433 
0.781534 
0.885407 
0.958835 
0.996003 
0.993959 
0.952852 
0.875919 
0.769235 
0.641231 
0.502034 
0.362659 
0.234145 
0.126675 
0.0487715 
0.00661913 
0.00357166 
0.0398844 
0.112691 
0.21623 
0.342296 
0.480892 
0.621021 
0.751557 
0.86213 
0.943949 
0.990503 
0.998081 
0.966064 
0.896987 
0.796329 
0.672087 
0.534137 
0.393455 
0.261239 
0.148018 
0.0628169 
0.0124329 
0.000892586 
0.0291294 
0.0949063 
0.192992 
0.315574 
0.452882 
0.593966 
0.727567 
0.843016 
0.93109 
0.984743 
0.999677 
0.974687 
0.911755 
0.815899 
0.694772 
0.558053 
0.416674 
0.281947 
0.164656 
0.0741981 
0.0178255 
6.5161e-05 
0.0223535 
0.0829184 
0.176919 
0.296831 
0.433049 
0.574652 
0.710282 
0.829054 
0.92143 
0.979983 
1 
0.97986 
0.921168 
0.828625 
0.709659 
0.573823 
0.432036 
0.295699 
0.175782 
0.0819414 
0.0217384 
3.16505e-05 
0.0185826 
0.0759111 
0.167412 
0.285724 
0.42132 
0.563275 
0.700144 
0.820886 
0.915753 
0.977082 
0.999911 
0.982383 
0.925901 
0.835011 
0.717046 
0.581529 
0.439406 
0.302165 
0.180907 
0.0854446 
0.0235096 
0.000125751 
0.0171991 
0.0733615 
0.164079 
0.282015 
0.417624 
0.559925 
0.697384 
0.818857 
0.914487 
0.976509 
0.99988 
0.982689 
0.926317 
0.835328 
0.717099 
0.581223 
0.438732 
0.301204 
0.179818 
0.0844496 
0.0228616 
7.55544e-05 
0.0179588 
0.07507 
0.166774 
0.285618 
0.421933 
0.564622 
0.702062 
0.823052 
0.917725 
0.978353 
0.999981 
0.98083 
0.92245 
0.82959 
0.709818 
0.572903 
0.43002 
0.292835 
0.17256 
0.0790287 
0.0198944 
3.76165e-06 
0.0209969 
0.081171 
0.175617 
0.296617 
0.434278 
0.577335 
0.714075 
0.833297 
0.925228 
0.982324 
0.999894 
0.976484 
0.913999 
0.817552 
0.695042 
0.556513 
0.41333 
0.277247 
0.159439 
0.069589 
0.0150885 
0.000427661 
0.0268253 
0.0921255 
0.190972 
0.315247 
0.454734 
0.597962 
0.733144 
0.849148 
0.936415 
0.987748 
0.998905 
0.968954 
0.90035 
0.798733 
0.672472 
0.531972 
0.388819 
0.254823 
0.141048 
0.0568921 
0.00931463 
0.00225772 
0.0363182 
0.108696 
0.213422 
0.341851 
0.48337 
0.626281 
0.758762 
0.869847 
0.950335 
0.993553 
0.99591 
0.957195 
0.880604 
0.772467 
0.641738 
0.499244 
0.356797 
0.22621 
0.11832 
0.0420867 
0.00384767 
0.00679006 
0.0506837 
0.131897 
0.243698 
0.376806 
0.520167 
0.661868 
0.790127 
0.894272 
0.965632 
0.998259 
0.989425 
0.93985 
0.853647 
0.737984 
0.602485 
0.458432 
0.317826 
0.19239 
0.0925864 
0.0267469 
0.000374998 
0.0156845 
0.071412 
0.16292 
0.28258 
0.42041 
0.564904 
0.703991 
0.826048 
0.920865 
0.980507 
0.999975 
0.977625 
0.915315 
0.818244 
0.694525 
0.554506 
0.409908 
0.27284 
0.154786 
0.0656471 
0.0129032 
0.000988609 
0.0309164 
0.100191 
0.203013 
0.330768 
0.472741 
0.617017 
0.751485 
0.864845 
0.947569 
0.992695 
0.996417 
0.958408 
0.88185 
0.773169 
0.641497 
0.497903 
0.35447 
0.223272 
0.11536 
0.0398287 
0.00305311 
0.00814467 
0.0546885 
0.138775 
0.253328 
0.388696 
0.533469 
0.675433 
0.802609 
0.904255 
0.971781 
0.999473 
0.984978 
0.929507 
0.837733 
0.717401 
0.578675 
0.433281 
0.293514 
0.171201 
0.0766985 
0.0180144 
0.000129537 
0.0245722 
0.0892864 
0.188803 
0.314702 
0.45632 
0.601657 
0.73839 
0.854919 
0.941351 
0.990342 
0.997721 
0.962848 
0.888669 
0.781472 
0.650351 
0.506441 
0.361966 
0.22921 
0.119464 
0.0420699 
0.00362181 
0.00740461 
0.0531107 
0.136863 
0.251545 
0.387398 
0.532858 
0.675535 
0.803269 
0.905165 
0.972528 
0.999601 
0.984062 
0.927221 
0.833915 
0.712097 
0.572157 
0.42604 
0.286224 
0.164656 
0.0717316 
0.0154026 
0.000497137 
0.0283039 
0.0964589 
0.199145 
0.327587 
0.4708 
0.616529 
0.752295 
0.866468 
0.949259 
0.993564 
0.995571 
0.955096 
0.875593 
0.763869 
0.629497 
0.483998 
0.339857 
0.209447 
0.10397 
0.0324928 
0.00116715 
0.0126979 
0.0661085 
0.156822 
0.277052 
0.416468 
0.563084 
0.70429 
0.82793 
0.923357 
0.982346 
0.999804 
0.974214 
0.907765 
0.806171 
0.678176 
0.534806 
0.388419 
0.251639 
0.136271 
0.0522758 
0.00691446 
0.00411566 
0.0441354 
0.123532 
0.235459 
0.370256 
0.516282 
0.660916 
0.791653 
0.897181 
0.968362 
0.999026 
0.986507 
0.931873 
0.83984 
0.718366 
0.577964 
0.430791 
0.2896 
0.166631 
0.072551 
0.0155287 
0.000522477 
0.0288483 
0.0980626 
0.202172 
0.332148 
0.476715 
0.62332 
0.759228 
0.872625 
0.953648 
0.995243 
0.993779 
0.94937 
0.865864 
0.750514 
0.613349 
0.466301 
0.322172 
0.193514 
0.09154 
0.0251435 
0.000122949 
0.0186732 
0.0791915 
0.176414 
0.301873 
0.444632 
0.592238 
0.731809 
0.851157 
0.939854 
0.990141 
0.997613 
0.961602 
0.885242 
0.775194 
0.641071 
0.494594 
0.348574 
0.215789 
0.107863 
0.0342533 
0.00141664 
0.0122423 
0.0657966 
0.157401 
0.279041 
0.420063 
0.568109 
0.710199 
0.833865 
0.928253 
0.985069 
0.999314 
0.969723 
0.898879 
0.792992 
0.661353 
0.51552 
0.368307 
0.232656 
0.120499 
0.0417074 
0.00322463 
0.00845018 
0.0569386 
0.144436 
0.263251 
0.402929 
0.551174 
0.694926 
0.821515 
0.919776 
0.981036 
0.999881 
0.974634 
0.907508 
0.804413 
0.674437 
0.529045 
0.381073 
0.24359 
0.128744 
0.0466924 
0.00469804 
0.00648664 
0.0519146 
0.136979 
0.254167 
0.39312 
0.541547 
0.686313 
0.814598 
0.915035 
0.978717 
0.999991 
0.976957 
0.911641 
0.809821 
0.680515 
0.535182 
0.386712 
0.24828 
0.132175 
0.0487137 
0.00531753 
0.00585438 
0.0502911 
0.134694 
0.251574 
0.390551 
0.539276 
0.684524 
0.813372 
0.914351 
0.978465 
0.999994 
0.977007 
0.911536 
0.8094 
0.679686 
0.533945 
0.385163 
0.246602 
0.130624 
0.0475802 
0.00489016 
0.0063768 
0.0519221 
0.137474 
0.255408 
0.3952 
0.544369 
0.68959 
0.817882 
0.917771 
0.980317 
0.999913 
0.974792 
0.907188 
0.803135 
0.671937 
0.525331 
0.37644 
0.238601 
0.124166 
0.0433984 
0.00354771 
0.00820049 
0.0569542 
0.145451 
0.265763 
0.407108 
0.556804 
0.701418 
0.827962 
0.925065 
0.983994 
0.999443 
0.970009 
0.898323 
0.790815 
0.657144 
0.509322 
0.360646 
0.224495 
0.113126 
0.0365757 
0.00174785 
0.0117932 
0.0658216 
0.158979 
0.282882 
0.426371 
0.576515 
0.719774 
0.843224 
0.935718 
0.988899 
0.997955 
0.962052 
0.884418 
0.772053 
0.635096 
0.485916 
0.337993 
0.204701 
0.0980975 
0.0278334 
0.000277248 
0.0179365 
0.0792277 
0.178617 
0.307117 
0.453099 
0.603346 
0.744245 
0.863024 
0.948909 
0.994103 
0.994493 
0.950029 
0.864731 
0.746326 
0.60555 
0.455176 
0.308857 
0.179883 
0.0799761 
0.0182245 
0.000252976 
0.0277095 
0.0981124 
0.205073 
0.338873 
0.487348 
0.636991 
0.774179 
0.88642 
0.963482 
0.998337 
0.987794 
0.932799 
0.83835 
0.713045 
0.5683 
0.41731 
0.273848 
0.151005 
0.0600011 
0.00915276 
0.0031163 
0.0424576 
0.123598 
0.239137 
0.378528 
0.529037 
0.676907 
0.808616 
0.912111 
0.977915 
0.999993 
0.976311 
0.909022 
0.804273 
0.671646 
0.523281 
0.372766 
0.233896 
0.119405 
0.0397959 
0.00238267 
0.0106103 
0.0637388 
0.156907 
0.281577 
0.426313 
0.577831 
0.722217 
0.846203 
0.938391 
0.990298 
0.997137 
0.958268 
0.877248 
0.761517 
0.621712 
0.470691 
0.322352 
0.190353 
0.0868551 
0.0214 
3.07148e-05 
0.0247307 
0.0932382 
0.199252 
0.333009 
0.482181 
0.633014 
0.771589 
0.885114 
0.963101 
0.998339 
0.987559 
0.931742 
0.83603 
0.709255 
0.563126 
0.411145 
0.267364 
0.145084 
0.0556257 
0.00727588 
0.00452323 
0.0476373 
0.132641 
0.251676 
0.393725 
0.545637 
0.693335 
0.823129 
0.922978 
0.983614 
0.999399 
0.968856 
0.894802 
0.784098 
0.647008 
0.496253 
0.34583 
0.209713 
0.100553 
0.0285043 
0.000275577 
0.0185057 
0.0815145 
0.183456 
0.314857 
0.463502 
0.615559 
0.756874 
0.874285 
0.956849 
0.996863 
0.990585 
0.938585 
0.845695 
0.720564 
0.574851 
0.42214 
0.276677 
0.152039 
0.0598658 
0.00877375 
0.00354671 
0.0446877 
0.128368 
0.246783 
0.388876 
0.541372 
0.690016 
0.820905 
0.92179 
0.983222 
0.99944 
0.968911 
0.894478 
0.783097 
0.645189 
0.493664 
0.342717 
0.206496 
0.0977738 
0.026755 
0.000111877 
0.0203579 
0.0856087 
0.189755 
0.323034 
0.472941 
0.625406 
0.766107 
0.881823 
0.961673 
0.998139 
0.987781 
0.931556 
0.834738 
0.706421 
0.558669 
0.40538 
0.260981 
0.139071 
0.0511367 
0.00547218 
0.00639282 
0.0538269 
0.143319 
0.266445 
0.411606 
0.56512 
0.712507 
0.839858 
0.935149 
0.989375 
0.997402 
0.958458 
0.876206 
0.758404 
0.61617 
0.462942 
0.313201 
0.181107 
0.0791599 
0.0170122 
0.000557507 
0.0313675 
0.106541 
0.218975 
0.358033 
0.510554 
0.66209 
0.798283 
0.906218 
0.975654 
0.999996 
0.976919 
0.908598 
0.8015 
0.665778 
0.514306 
0.361459 
0.221753 
0.108461 
0.0323563 
0.000681602 
0.016462 
0.0782124 
0.180076 
0.312377 
0.462541 
0.616284 
0.758977 
0.877033 
0.959204 
0.997654 
0.988705 
0.933197 
0.836402 
0.707534 
0.558868 
0.404573 
0.259364 
0.137094 
0.0494377 
0.00477165 
0.00737304 
0.0570086 
0.148953 
0.274438 
0.421486 
0.576052 
0.723364 
0.849339 
0.941924 
0.992253 
0.995499 
0.951335 
0.863973 
0.741763 
0.596393 
0.441777 
0.292721 
0.163508 
0.0665255 
0.0110789 
0.00249674 
0.041617 
0.124703 
0.243798 
0.387488 
0.54199 
0.692478 
0.824501 
0.925378 
0.985407 
0.99881 
0.964283 
0.88513 
0.768945 
0.626889 
0.472615 
0.320959 
0.186513 
0.082222 
0.0181327 
0.000428701 
0.0308294 
0.106422 
0.219939 
0.360453 
0.514431 
0.667035 
0.803548 
0.910802 
0.978441 
0.999926 
0.973171 
0.900741 
0.789615 
0.650511 
0.496856 
0.343489 
0.205229 
0.0954423 
0.0247515 
3.50615e-06 
0.0236062 
0.0932919 
0.202333 
0.340191 
0.49353 
0.647512 
0.787226 
0.899137 
0.972394 
0.999887 
0.978937 
0.91156 
0.804273 
0.667469 
0.514406 
0.35993 
0.21903 
0.105386 
0.0300379 
0.000314997 
0.0191181 
0.084636 
0.190518 
0.326486 
0.479335 
0.634208 
0.776047 
0.891051 
0.968024 
0.999463 
0.982295 
0.918176 
0.813333 
0.677965 
0.525247 
0.370054 
0.227508 
0.111507 
0.033369 
0.000724681 
0.0167726 
0.0799625 
0.184144 
0.319161 
0.471846 
0.627294 
0.770328 
0.886972 
0.965821 
0.999159 
0.983713 
0.920978 
0.817073 
0.682146 
0.529388 
0.373739 
0.23043 
0.113493 
0.0343845 
0.000863799 
0.0162283 
0.078988 
0.183008 
0.318107 
0.471051 
0.626849 
0.770223 
0.887105 
0.966019 
0.99921 
0.983405 
0.92014 
0.815613 
0.680077 
0.526837 
0.370944 
0.227719 
0.111244 
0.0329789 
0.00063308 
0.0174023 
0.0816521 
0.187075 
0.323308 
0.476949 
0.632876 
0.775733 
0.891442 
0.968596 
0.999578 
0.981321 
0.915609 
0.808906 
0.671725 
0.517588 
0.361701 
0.219446 
0.104872 
0.0292987 
0.000202487 
0.0204717 
0.0881192 
0.196475 
0.334842 
0.489551 
0.645309 
0.786712 
0.899767 
0.973279 
0.999961 
0.977157 
0.90711 
0.796741 
0.656969 
0.501632 
0.346117 
0.205838 
0.094705 
0.0237463 
1.15987e-05 
0.02587 
0.0987714 
0.211496 
0.352868 
0.508862 
0.663991 
0.802849 
0.911636 
0.979534 
0.999783 
0.970354 
0.894158 
0.778759 
0.63562 
0.478975 
0.324406 
0.187297 
0.0813037 
0.0169884 
0.000769543 
0.0342777 
0.11419 
0.232557 
0.377593 
0.534848 
0.688643 
0.82364 
0.926365 
0.986559 
0.998201 
0.960114 
0.876085 
0.754491 
0.607465 
0.449689 
0.296923 
0.164439 
0.0654854 
0.00996783 
0.00345172 
0.0466041 
0.135123 
0.260165 
0.409224 
0.567387 
0.718818 
0.848349 
0.942997 
0.993268 
0.99411 
0.945424 
0.852074 
0.723409 
0.572323 
0.413966 
0.264225 
0.138133 
0.0483537 
0.0039133 
0.00928889 
0.0639559 
0.162437 
0.294851 
0.447897 
0.606197 
0.753834 
0.875958 
0.960274 
0.998289 
0.986161 
0.925095 
0.821226 
0.684999 
0.530124 
0.372199 
0.227136 
0.109558 
0.0313266 
0.000341707 
0.0197426 
0.0875879 
0.197048 
0.33709 
0.493589 
0.650751 
0.792707 
0.905116 
0.976613 
0.999963 
0.97279 
0.897826 
0.782634 
0.638851 
0.481009 
0.325073 
0.18682 
0.080249 
0.0161564 
0.00104467 
0.0364594 
0.118829 
0.239824 
0.387194 
0.546012 
0.700183 
0.834071 
0.934093 
0.990093 
0.996375 
0.952286 
0.862286 
0.735498 
0.584784 
0.425443 
0.273661 
0.14486 
0.0521379 
0.00492998 
0.00805007 
0.0611964 
0.158979 
0.291464 
0.445181 
0.604493 
0.753184 
0.876113 
0.960751 
0.998467 
0.985403 
0.922875 
0.817241 
0.679256 
0.522979 
0.364344 
0.219529 
0.103316 
0.0275721 
4.08101e-05 
0.0235477 
0.0957083 
0.209168 
0.352348 
0.510629 
0.66784 
0.80791 
0.916515 
0.982537 
0.999212 
0.964819 
0.88286 
0.761709 
0.613757 
0.454142 
0.299207 
0.164824 
0.064766 
0.00929693 
0.00411566 
0.0497688 
0.141591 
0.270179 
0.422355 
0.582512 
0.734218 
0.861899 
0.952439 
0.996531 
0.989631 
0.932433 
0.830798 
0.695157 
0.539443 
0.379658 
0.232232 
0.112331 
0.0323 
0.000384793 
0.019885 
0.0888091 
0.200076 
0.34224 
0.500668 
0.659043 
0.801046 
0.912035 
0.98056 
0.999543 
0.967011 
0.886303 
0.765731 
0.617726 
0.457555 
0.30175 
0.1664 
0.0654895 
0.00945357 
0.0040953 
0.049984 
0.142392 
0.27178 
0.424781 
0.585576 
0.737535 
0.864931 
0.954574 
0.997171 
0.9883 
0.928862 
0.824998 
0.687456 
0.530475 
0.370321 
0.223593 
0.105509 
0.0283233 
5.41713e-05 
0.0236495 
0.0966767 
0.211571 
0.356419 
0.51619 
0.674295 
0.814311 
0.921686 
0.985252 
0.998388 
0.959713 
0.873233 
0.747928 
0.59682 
0.435624 
0.28111 
0.149365 
0.0541108 
0.00527739 
0.00796494 
0.0619092 
0.161505 
0.296387 
0.452507 
0.613594 
0.762851 
0.884707 
0.966443 
0.999516 
0.980461 
0.91125 
0.799096 
0.655695 
0.496018 
0.336741 
0.194508 
0.0841888 
0.0173257 
0.000922862 
0.0367111 
0.120963 
0.244878 
0.395503 
0.557079 
0.712696 
0.846058 
0.943191 
0.99391 
0.992886 
0.940212 
0.841392 
0.706772 
0.550457 
0.388835 
0.238858 
0.116266 
0.033931 
0.000508405 
0.0195217 
0.0889904 
0.201633 
0.345631 
0.505862 
0.665494 
0.807745 
0.917656 
0.983658 
0.998797 
0.961464 
0.875571 
0.750144 
0.598373 
0.43623 
0.280786 
0.148417 
0.0530731 
0.00481331 
0.00873785 
0.0644488 
0.166088 
0.302951 
0.460611 
0.622443 
0.771371 
0.891671 
0.970638 
0.999919 
0.976408 
0.902572 
0.786197 
0.639567 
0.478171 
0.319068 
0.179079 
0.0730167 
0.01211 
0.00281659 
0.0461355 
0.137498 
0.267245 
0.421651 
0.584371 
0.738169 
0.866747 
0.956473 
0.997825 
0.986402 
0.923402 
0.815489 
0.674099 
0.514222 
0.35282 
0.207025 
0.0923195 
0.0208938 
0.000346992 
0.0328772 
0.115044 
0.23813 
0.389064 
0.551807 
0.709058 
0.844088 
0.942526 
0.993888 
0.992692 
0.93905 
0.838658 
0.702192 
0.544177 
0.38144 
0.23132 
0.10982 
0.0299008 
9.5838e-05 
0.0235986 
0.0979181 
0.215141 
0.362772 
0.525063 
0.684695 
0.824622 
0.929896 
0.989261 
0.996362 
0.950422 
0.856338 
0.724151 
0.567985 
0.404532 
0.251276 
0.124614 
0.0381101 
0.00103388 
0.0173694 
0.0853838 
0.197808 
0.342614 
0.504296 
0.665533 
0.809044 
0.919439 
0.98487 
0.998306 
0.958291 
0.869102 
0.740295 
0.585683 
0.421858 
0.266408 
0.136029 
0.0447362 
0.00234848 
0.0134361 
0.0768234 
0.185711 
0.328405 
0.489568 
0.651869 
0.797845 
0.911783 
0.981409 
0.999214 
0.963265 
0.877418 
0.750905 
0.597346 
0.433281 
0.276392 
0.143595 
0.0492164 
0.00344779 
0.0112408 
0.0717705 
0.17852 
0.319982 
0.480892 
0.643881 
0.791347 
0.907353 
0.979356 
0.999561 
0.96577 
0.881618 
0.756191 
0.603043 
0.438732 
0.281035 
0.14702 
0.0511995 
0.00396052 
0.0104325 
0.0699305 
0.176025 
0.317233 
0.478263 
0.641665 
0.789724 
0.906379 
0.978968 
0.999604 
0.966031 
0.881878 
0.756263 
0.602813 
0.438183 
0.280252 
0.146178 
0.0505368 
0.0037344 
0.0108728 
0.0711921 
0.178148 
0.320122 
0.481679 
0.645245 
0.793019 
0.908911 
0.980294 
0.999379 
0.964074 
0.878208 
0.751123 
0.596656 
0.431638 
0.274057 
0.141101 
0.0472775 
0.00283526 
0.0126379 
0.0756317 
0.184956 
0.328688 
0.491143 
0.65458 
0.801146 
0.91482 
0.983168 
0.998706 
0.95972 
0.870455 
0.740662 
0.584528 
0.419129 
0.262565 
0.131977 
0.0416705 
0.00154746 
0.0160172 
0.0835108 
0.196648 
0.343043 
0.506658 
0.669559 
0.813881 
0.923789 
0.987215 
0.997185 
0.952589 
0.858307 
0.724675 
0.566357 
0.400736 
0.246003 
0.119166 
0.0341711 
0.000375322 
0.0215093 
0.0952651 
0.213546 
0.363352 
0.528209 
0.689977 
0.830848 
0.935306 
0.991836 
0.994199 
0.942116 
0.841312 
0.702882 
0.542073 
0.376611 
0.224739 
0.103214 
0.0254513 
4.41958e-05 
0.0298124 
0.111486 
0.236063 
0.389799 
0.555722 
0.715505 
0.851491 
0.948643 
0.996212 
0.988922 
0.927564 
0.818909 
0.674962 
0.511642 
0.347018 
0.199312 
0.0848834 
0.016413 
0.00149846 
0.0418079 
0.132891 
0.264669 
0.422545 
0.589024 
0.745647 
0.87504 
0.962839 
0.99929 
0.980333 
0.908056 
0.790468 
0.640612 
0.475125 
0.312385 
0.170476 
0.0651748 
0.00819747 
0.00589279 
0.0585332 
0.16028 
0.299829 
0.461664 
0.62778 
0.77969 
0.900475 
0.976677 
0.999795 
0.967238 
0.882617 
0.755349 
0.599605 
0.432742 
0.273362 
0.139245 
0.0453583 
0.00218984 
0.014572 
0.081139 
0.194475 
0.341938 
0.507069 
0.671426 
0.816645 
0.926492 
0.988679 
0.996238 
0.94831 
0.850237 
0.712977 
0.551874 
0.384951 
0.230889 
0.106939 
0.0269907 
9.53151e-06 
0.0290337 
0.110828 
0.236241 
0.39123 
0.558427 
0.719089 
0.855196 
0.951472 
0.997104 
0.986957 
0.922154 
0.809952 
0.662938 
0.49761 
0.332535 
0.186259 
0.0752246 
0.011922 
0.00348127 
0.0508676 
0.148768 
0.286186 
0.447672 
0.615062 
0.769517 
0.893648 
0.973468 
0.999975 
0.970169 
0.887391 
0.760952 
0.605091 
0.437369 
0.276692 
0.141182 
0.046132 
0.00227605 
0.014578 
0.0816659 
0.195983 
0.344635 
0.510847 
0.675849 
0.821001 
0.929896 
0.990217 
0.99513 
0.944065 
0.842779 
0.702713 
0.539702 
0.372183 
0.219113 
0.0978235 
0.0220547 
0.000400059 
0.035328 
0.122898 
0.253204 
0.411491 
0.579825 
0.739126 
0.871326 
0.961425 
0.999189 
0.980319 
0.90694 
0.787363 
0.635152 
0.467581 
0.303675 
0.162054 
0.0588167 
0.0057045 
0.00876907 
0.0676784 
0.17575 
0.320709 
0.486075 
0.653042 
0.802609 
0.917748 
0.985343 
0.997682 
0.953345 
0.857365 
0.720662 
0.558802 
0.390224 
0.234145 
0.108362 
0.0272302 
1.52754e-05 
0.029838 
0.113312 
0.240926 
0.398126 
0.566972 
0.728186 
0.863352 
0.957022 
0.99848 
0.982974 
0.912258 
0.794402 
0.64287 
0.474983 
0.309942 
0.166631 
0.0614577 
0.00647185 
0.00798282 
0.065834 
0.173416 
0.318419 
0.484241 
0.651885 
0.802135 
0.917762 
0.985497 
0.997559 
0.952546 
0.855608 
0.717853 
0.555081 
0.38597 
0.229936 
0.104903 
0.0252406 
0.00011563 
0.0324305 
0.118488 
0.24841 
0.407272 
0.576813 
0.737535 
0.870944 
0.961683 
0.999294 
0.979434 
0.904373 
0.782738 
0.628526 
0.459492 
0.29511 
0.154326 
0.053374 
0.00390494 
0.0116381 
0.0756982 
0.188711 
0.337652 
0.505343 
0.672433 
0.819631 
0.929935 
0.990594 
0.994588 
0.941437 
0.837269 
0.694108 
0.528493 
0.359568 
0.206869 
0.0880622 
0.0169041 
0.0016424 
0.0440597 
0.139262 
0.276242 
0.439148 
0.609118 
0.766462 
0.892944 
0.973897 
0.999923 
0.967988 
0.88178 
0.751282 
0.59162 
0.421312 
0.26012 
0.126758 
0.0367174 
0.000465895 
0.0222298 
0.0994975 
0.223307 
0.379284 
0.549307 
0.713613 
0.853096 
0.951526 
0.997441 
0.985483 
0.917028 
0.800028 
0.648088 
0.478891 
0.312137 
0.167249 
0.0611161 
0.00611543 
0.00867247 
0.0685057 
0.178655 
0.32629 
0.4942 
0.662803 
0.812425 
0.925598 
0.9891 
0.995504 
0.944046 
0.840718 
0.697577 
0.531337 
0.361419 
0.207684 
0.0881097 
0.0166887 
0.00178797 
0.0451667 
0.141766 
0.280297 
0.444557 
0.615323 
0.772601 
0.897968 
0.97673 
0.999645 
0.964012 
0.873991 
0.740118 
0.57808 
0.406869 
0.246566 
0.115981 
0.0304454 
1.04854e-05 
0.028265 
0.111908 
0.241134 
0.400777 
0.572091 
0.73495 
0.870213 
0.961972 
0.999426 
0.978155 
0.900645 
0.775998 
0.618866 
0.44773 
0.282731 
0.143295 
0.0458477 
0.00187755 
0.0165794 
0.088238 
0.208425 
0.362989 
0.533719 
0.70049 
0.843632 
0.946254 
0.996239 
0.987674 
0.921551 
0.805661 
0.653672 
0.483521 
0.315301 
0.168885 
0.0615785 
0.006075 
0.00894963 
0.0698792 
0.181675 
0.331131 
0.500576 
0.669969 
0.819264 
0.930784 
0.991316 
0.993678 
0.937575 
0.829634 
0.68263 
0.513971 
0.34364 
0.191829 
0.0765425 
0.0114627 
0.00432309 
0.0559872 
0.160342 
0.305016 
0.472849 
0.643922 
0.797919 
0.916547 
0.985703 
0.997155 
0.949527 
0.848463 
0.705963 
0.538959 
0.367306 
0.211421 
0.0898558 
0.017086 
0.00178656 
0.0457951 
0.143889 
0.2844 
0.450606 
0.622711 
0.78021 
0.904329 
0.980261 
0.99894 
0.958123 
0.862661 
0.723926 
0.558461 
0.386003 
0.227136 
0.100831 
0.0221779 
0.000585133 
0.0386477 
0.131835 
0.269027 
0.433838 
0.606573 
0.766582 
0.894725 
0.975665 
0.999705 
0.963952 
0.87267 
0.736768 
0.572505 
0.399545 
0.238601 
0.108957 
0.0261553 
0.000132993 
0.0340251 
0.123785 
0.258666 
0.422504 
0.595653 
0.757341 
0.888163 
0.972407 
0.999948 
0.967461 
0.878832 
0.744691 
0.58114 
0.407824 
0.24557 
0.113886 
0.0286132 
1.85084e-05 
0.0315577 
0.119453 
0.253146 
0.416558 
0.59003 
0.752679 
0.884916 
0.970807 
0.999993 
0.96894 
0.881374 
0.747833 
0.584404 
0.410782 
0.247904 
0.115418 
0.0293185 
6.2542e-06 
0.0310354 
0.118677 
0.252367 
0.415972 
0.589742 
0.752686 
0.885114 
0.971013 
0.999987 
0.968517 
0.880392 
0.746253 
0.582314 
0.408401 
0.245556 
0.113493 
0.0282067 
3.75592e-05 
0.0324127 
0.121428 
0.256314 
0.420741 
0.594789 
0.757363 
0.888748 
0.973005 
0.9999 
0.966155 
0.875847 
0.73992 
0.574859 
0.400695 
0.238573 
0.108185 
0.0253801 
0.000230578 
0.035809 
0.127808 
0.265061 
0.430891 
0.60514 
0.766618 
0.895674 
0.976598 
0.999527 
0.961654 
0.867572 
0.728723 
0.562004 
0.387716 
0.227094 
0.0997132 
0.02111 
0.00088012 
0.0415066 
0.138052 
0.278756 
0.446464 
0.62072 
0.780259 
0.905601 
0.981434 
0.998484 
0.95465 
0.855272 
0.712476 
0.543701 
0.369569 
0.211366 
0.0884425 
0.015841 
0.00245676 
0.0499438 
0.152508 
0.297612 
0.467505 
0.641392 
0.79798 
0.918084 
0.98698 
0.996213 
0.944633 
0.838547 
0.690945 
0.519916 
0.346428 
0.191763 
0.0749023 
0.0101972 
0.00560399 
0.0617035 
0.171624 
0.321883 
0.494033 
0.666932 
0.819335 
0.932505 
0.99252 
0.991987 
0.930954 
0.816911 
0.663872 
0.490657 
0.318576 
0.168809 
0.0598022 
0.00498765 
0.0111315 
0.0774941 
0.195916 
0.35182 
0.526 
0.696992 
0.843711 
0.948057 
0.99715 
0.984917 
0.91285 
0.789826 
0.631018 
0.456019 
0.286436 
0.143213 
0.0440494 
0.00120929 
0.0200021 
0.0981224 
0.225929 
0.387635 
0.56325 
0.731059 
0.870298 
0.96373 
0.999781 
0.973972 
0.88948 
0.756752 
0.592213 
0.416236 
0.250622 
0.115895 
0.0287642 
4.28692e-05 
0.0333088 
0.124454 
0.262189 
0.429439 
0.60546 
0.768408 
0.898054 
0.978292 
0.999145 
0.958006 
0.859968 
0.717197 
0.547422 
0.371738 
0.211982 
0.0880242 
0.0152893 
0.00283883 
0.0522385 
0.157359 
0.305132 
0.477175 
0.652076 
0.808056 
0.925681 
0.990289 
0.993816 
0.935804 
0.823468 
0.670796 
0.496814 
0.323214 
0.17165 
0.0610359 
0.00518672 
0.0110876 
0.0780191 
0.197641 
0.355032 
0.530542 
0.702253 
0.84871 
0.951601 
0.998056 
0.982251 
0.906145 
0.779238 
0.617392 
0.440845 
0.271684 
0.131082 
0.0366481 
0.000218033 
0.0263697 
0.111845 
0.245953 
0.411903 
0.588909 
0.754787 
0.888738 
0.973958 
0.999746 
0.962851 
0.867884 
0.726746 
0.557137 
0.380341 
0.218552 
0.0920916 
0.0168523 
0.00230007 
0.0502802 
0.15478 
0.302681 
0.475401 
0.65123 
0.808056 
0.926146 
0.990635 
0.993391 
0.934052 
0.820069 
0.665778 
0.490598 
0.316586 
0.165664 
0.0568533 
0.00387781 
0.0134303 
0.0843238 
0.207636 
0.367831 
0.544711 
0.715966 
0.859986 
0.958585 
0.999306 
0.976992 
0.894442 
0.762066 
0.596574 
0.418864 
0.251392 
0.115327 
0.0278803 
0.00012073 
0.0355759 
0.129778 
0.270827 
0.440886 
0.618442 
0.781022 
0.908037 
0.983394 
0.997535 
0.948651 
0.842919 
0.693722 
0.519958 
0.343648 
0.187147 
0.070307 
0.00795898 
0.00802762 
0.0705214 
0.187526 
0.344205 
0.520678 
0.69454 
0.843711 
0.949234 
0.99769 
0.982906 
0.906745 
0.77887 
0.615526 
0.437477 
0.267364 
0.126831 
0.0337674 
2.99764e-05 
0.0299293 
0.119676 
0.25786 
0.426894 
0.605255 
0.770223 
0.900771 
0.980252 
0.998519 
0.953228 
0.850136 
0.702376 
0.528786 
0.351508 
0.193163 
0.0739699 
0.00915435 
0.0070078 
0.0678216 
0.183845 
0.34027 
0.517119 
0.691797 
0.841973 
0.94844 
0.997572 
0.983069 
0.906769 
0.778418 
0.614426 
0.435773 
0.265327 
0.124913 
0.0325226 
1.99278e-06 
0.0315342 
0.123096 
0.26297 
0.43324 
0.612084 
0.776571 
0.905601 
0.982614 
0.997714 
0.948946 
0.842553 
0.692176 
0.517111 
0.339833 
0.183112 
0.0670861 
0.00667496 
0.00965733 
0.0756672 
0.196235 
0.355874 
0.534062 
0.707885 
0.854978 
0.956405 
0.999101 
0.977554 
0.894519 
0.760674 
0.593242 
0.413784 
0.245419 
0.109846 
0.0245488 
0.000537129 
0.0409237 
0.140518 
0.286489 
0.460018 
0.638722 
0.799538 
0.921704 
0.989437 
0.993975 
0.934716 
0.819296 
0.662613 
0.484903 
0.309128 
0.158012 
0.0510998 
0.00222918 
0.0177369 
0.0956344 
0.225859 
0.391573 
0.571336 
0.74188 
0.881119 
0.971013 
0.999903 
0.96403 
0.868026 
0.724316 
0.551516 
0.372021 
0.209106 
0.0839052 
0.0126698 
0.00465688 
0.0609236 
0.174184 
0.329751 
0.507437 
0.684173 
0.837003 
0.946065 
0.997178 
0.983682 
0.907314 
0.777986 
0.6125 
0.432368 
0.261018 
0.120744 
0.0298095 
6.16918e-05 
0.0353899 
0.131212 
0.275067 
0.44823 
0.628153 
0.791394 
0.916677 
0.987661 
0.995078 
0.937943 
0.823691 
0.667208 
0.488898 
0.31202 
0.15966 
0.0517104 
0.00227765 
0.0178321 
0.09636 
0.22762 
0.394479 
0.575141 
0.745998 
0.884713 
0.973141 
0.999705 
0.960913 
0.861824 
0.715384 
0.540746 
0.360759 
0.198984 
0.0766093 
0.00967044 
0.00695061 
0.0688235 
0.187199 
0.34658 
0.526084 
0.702184 
0.851789 
0.955269 
0.999039 
0.97734 
0.893001 
0.757075 
0.587392 
0.406219 
0.237345 
0.102954 
0.0207096 
0.00143117 
0.0476694 
0.153365 
0.304638 
0.481612 
0.66102 
0.819264 
0.93552 
0.994481 
0.988372 
0.917978 
0.792551 
0.62859 
0.44768 
0.273646 
0.129418 
0.0340099 
8.67235e-06 
0.0319131 
0.125534 
0.268544 
0.442093 
0.623296 
0.788247 
0.915175 
0.987316 
0.995133 
0.937575 
0.822226 
0.664307 
0.484668 
0.307039 
0.154895 
0.0483537 
0.00151145 
0.0205786 
0.103051 
0.238037 
0.407692 
0.589577 
0.759622 
0.895316 
0.978684 
0.998672 
0.952618 
0.846602 
0.694656 
0.516902 
0.336892 
0.178488 
0.062699 
0.00489016 
0.0127448 
0.0852387 
0.21277 
0.37843 
0.560241 
0.73407 
0.876835 
0.969568 
0.999937 
0.963893 
0.866206 
0.719842 
0.544244 
0.362748 
0.199486 
0.0761776 
0.00923432 
0.00757799 
0.0714465 
0.192357 
0.35423 
0.535525 
0.712105 
0.86045 
0.960793 
0.999751 
0.972116 
0.881553 
0.740118 
0.566656 
0.38429 
0.217342 
0.0880859 
0.0137797 
0.00435393 
0.061084 
0.176414 
0.334961 
0.515562 
0.6941 
0.846723 
0.95303 
0.998801 
0.977902 
0.89311 
0.755745 
0.584164 
0.401311 
0.231645 
0.0978733 
0.0179098 
0.00247254 
0.0536455 
0.164594 
0.320474 
0.500417 
0.680319 
0.836073 
0.946797 
0.997636 
0.981756 
0.901271 
0.766958 
0.59682 
0.413677 
0.242102 
0.105129 
0.0211534 
0.00146622 
0.0487282 
0.156609 
0.310631 
0.490112 
0.670938 
0.828802 
0.942476 
0.996662 
0.984057 
0.90634 
0.773948 
0.604682 
0.421312 
0.248519 
0.109568 
0.0231807 
0.00100447 
0.0460441 
0.152249 
0.305325 
0.484652 
0.666063 
0.8251 
0.940311 
0.996145 
0.985053 
0.908516 
0.776843 
0.607793 
0.424176 
0.250782 
0.111028 
0.0237999 
0.000896093 
0.045428 
0.151396 
0.304492 
0.484032 
0.665747 
0.825062 
0.940422 
0.996209 
0.984857 
0.907887 
0.775698 
0.606172 
0.422256 
0.248852 
0.109453 
0.0229543 
0.00109008 
0.046841 
0.154023 
0.308122 
0.488253 
0.669993 
0.828688 
0.942803 
0.996839 
0.983447 
0.904427 
0.77049 
0.59981 
0.415559 
0.242763 
0.104903 
0.0207216 
0.00167581 
0.0503717 
0.160206 
0.316259 
0.497317 
0.678755 
0.835887 
0.947323 
0.997881 
0.980664 
0.897998 
0.761124 
0.58867 
0.404121 
0.232621 
0.097545 
0.0173148 
0.00288268 
0.056234 
0.170111 
0.328995 
0.511224 
0.691936 
0.846469 
0.953722 
0.999039 
0.976217 
0.888353 
0.747433 
0.572696 
0.38801 
0.218615 
0.0876685 
0.0130854 
0.00507896 
0.0647619 
0.183988 
0.34646 
0.529957 
0.70937 
0.860137 
0.961609 
0.999877 
0.969683 
0.875145 
0.729199 
0.551832 
0.367346 
0.201029 
0.0756893 
0.00852704 
0.00876907 
0.0764 
0.202158 
0.368801 
0.553465 
0.730806 
0.876471 
0.970448 
0.999814 
0.96052 
0.857944 
0.706169 
0.526042 
0.34232 
0.180263 
0.0621639 
0.00427923 
0.0145881 
0.0916899 
0.224991 
0.396158 
0.581636 
0.755889 
0.894915 
0.979556 
0.998135 
0.948076 
0.836259 
0.678082 
0.49534 
0.313224 
0.156853 
0.0478016 
0.00112913 
0.0232918 
0.111249 
0.252876 
0.428635 
0.614262 
0.784125 
0.914754 
0.988092 
0.993988 
0.931611 
0.809564 
0.644708 
0.459826 
0.280485 
0.131495 
0.0334774 
9.53151e-06 
0.0357405 
0.135742 
0.286186 
0.466251 
0.651006 
0.814858 
0.9351 
0.995057 
0.986402 
0.910319 
0.777338 
0.605886 
0.419732 
0.244698 
0.105072 
0.0202398 
0.00199017 
0.0528742 
0.165845 
0.32523 
0.508903 
0.691356 
0.847236 
0.954873 
0.999295 
0.974309 
0.883371 
0.739111 
0.56158 
0.375466 
0.206665 
0.078672 
0.00931302 
0.00825953 
0.075676 
0.202192 
0.3702 
0.556305 
0.734581 
0.88018 
0.972798 
0.999511 
0.956576 
0.849962 
0.694525 
0.511936 
0.327666 
0.167431 
0.053604 
0.00208843 
0.0200937 
0.105123 
0.245318 
0.421105 
0.607932 
0.77969 
0.912367 
0.987404 
0.994294 
0.932054 
0.809374 
0.6434 
0.457346 
0.277247 
0.128312 
0.0314026 
0.000101327 
0.0388094 
0.142123 
0.295584 
0.477703 
0.662962 
0.825393 
0.942218 
0.997043 
0.982162 
0.899646 
0.761052 
0.585815 
0.39852 
0.225453 
0.0909176 
0.0138149 
0.00498884 
0.065697 
0.187428 
0.353092 
0.539418 
0.720218 
0.870072 
0.9679 
0.999928 
0.961634 
0.858389 
0.704702 
0.522193 
0.336544 
0.173892 
0.0571485 
0.00276707 
0.0184245 
0.101933 
0.241543 
0.417591 
0.605271 
0.778125 
0.911774 
0.987357 
0.994199 
0.931314 
0.80756 
0.640387 
0.453383 
0.272944 
0.124553 
0.0291773 
0.000302632 
0.0420262 
0.14847 
0.304607 
0.488378 
0.673808 
0.834675 
0.948221 
0.998371 
0.978013 
0.89001 
0.7468 
0.56864 
0.380748 
0.209727 
0.0798035 
0.00939366 
0.00848856 
0.0772344 
0.205906 
0.376278 
0.564206 
0.743045 
0.887428 
0.976863 
0.998648 
0.949674 
0.836873 
0.676241 
0.490573 
0.306228 
0.149389 
0.0423428 
0.000311439 
0.0292846 
0.125163 
0.274334 
0.455602 
0.643199 
0.810445 
0.933543 
0.994968 
0.985962 
0.90779 
0.771561 
0.596656 
0.407972 
0.23238 
0.0948965 
0.0151191 
0.0044315 
0.0643748 
0.186422 
0.353189 
0.540904 
0.722802 
0.872932 
0.969866 
0.999758 
0.958324 
0.851461 
0.694409 
0.509582 
0.323371 
0.162376 
0.0496049 
0.00118611 
0.024056 
0.114964 
0.260929 
0.441094 
0.629699 
0.799766 
0.926959 
0.993065 
0.988608 
0.914206 
0.780495 
0.606606 
0.417434 
0.240074 
0.0999393 
0.0171208 
0.00350301 
0.0610559 
0.181546 
0.347712 
0.535734 
0.718645 
0.870202 
0.968649 
0.999842 
0.959287 
0.852788 
0.69562 
0.510344 
0.323567 
0.162122 
0.0492164 
0.00108843 
0.0246734 
0.116599 
0.263664 
0.444732 
0.633764 
0.803568 
0.929704 
0.994006 
0.987203 
0.910257 
0.774228 
0.598693 
0.408928 
0.232267 
0.0941709 
0.0145519 
0.00490185 
0.0666299 
0.190854 
0.359673 
0.548748 
0.730806 
0.879575 
0.973575 
0.999225 
0.952802 
0.840993 
0.679928 
0.49286 
0.306807 
0.148655 
0.0412663 
0.000176887 
0.0313442 
0.13028 
0.282693 
0.466552 
0.655265 
0.821528 
0.941272 
0.997154 
0.981066 
0.895321 
0.752317 
0.572754 
0.382636 
0.209508 
0.0784646 
0.0085101 
0.00980207 
0.0821714 
0.215141 
0.38944 
0.579792 
0.758583 
0.899862 
0.983114 
0.996238 
0.937311 
0.814871 
0.646687 
0.457179 
0.273878 
0.123421 
0.0276875 
0.000607218 
0.0461355 
0.15767 
0.319005 
0.506683 
0.693405 
0.851997 
0.95937 
0.999879 
0.96761 
0.867242 
0.713378 
0.528418 
0.339302 
0.173587 
0.0554338 
0.00207698 
0.0213128 
0.110355 
0.256234 
0.437685 
0.628242 
0.800102 
0.928175 
0.993757 
0.987254 
0.9096 
0.772116 
0.594871 
0.403751 
0.22668 
0.0895398 
0.0123883 
0.00652031 
0.072812 
0.201586 
0.374023 
0.564904 
0.746304 
0.891671 
0.979719 
0.997541 
0.942511 
0.822668 
0.655552 
0.465633 
0.280734 
0.127954 
0.0296956 
0.000378249 
0.044318 
0.155089 
0.316462 
0.504773 
0.6924 
0.851807 
0.959588 
0.999907 
0.966828 
0.865189 
0.709902 
0.523766 
0.334123 
0.168841 
0.0522199 
0.00141664 
0.0239176 
0.116432 
0.265371 
0.448839 
0.639849 
0.810294 
0.935083 
0.995834 
0.983586 
0.900124 
0.757722 
0.577343 
0.385554 
0.210614 
0.0783114 
0.00815974 
0.0105178 
0.0850563 
0.2208 
0.39774 
0.589783 
0.768592 
0.907775 
0.986776 
0.993917 
0.928123 
0.799096 
0.625876 
0.434045 
0.251945 
0.106489 
0.0191893 
0.00296592 
0.0602361 
0.182549 
0.351828 
0.543042 
0.727903 
0.879051 
0.974105 
0.998978 
0.94997 
0.83432 
0.669141 
0.478891 
0.291753 
0.135461 
0.0331886 
0.000110816 
0.0411497 
0.150238 
0.311213 
0.500207 
0.689186 
0.850106 
0.959075 
0.999903 
0.966512 
0.863841 
0.707123 
0.519623 
0.329192 
0.164128 
0.0489702 
0.000849095 
0.0269365 
0.123372 
0.27583 
0.461647 
0.653185 
0.821945 
0.942803 
0.997758 
0.978611 
0.888195 
0.739957 
0.555964 
0.363618 
0.191578 
0.0654895 
0.0041576 
0.0167425 
0.101386 
0.245484 
0.427557 
0.620452 
0.79539 
0.92626 
0.993517 
0.987103 
0.907959 
0.767885 
0.587787 
0.394561 
0.217072 
0.0818495 
0.0091145 
0.0097559 
0.0836963 
0.219897 
0.398003 
0.591381 
0.771103 
0.910271 
0.988046 
0.99277 
0.923718 
0.791211 
0.615078 
0.421693 
0.240024 
0.0972965 
0.0149113 
0.00523256 
0.0697298 
0.19875 
0.372961 
0.566241 
0.7496 
0.895521 
0.982096 
0.996315 
0.936026 
0.810261 
0.637893 
0.444798 
0.259981 
0.111212 
0.0208578 
0.00251349 
0.0589548 
0.181714 
0.352348 
0.545203 
0.731274 
0.882563 
0.976296 
0.998349 
0.945386 
0.825361 
0.656332 
0.463744 
0.276602 
0.123102 
0.0263831 
0.00103657 
0.0509008 
0.168477 
0.336053 
0.528368 
0.71642 
0.871836 
0.971159 
0.999383 
0.952232 
0.836805 
0.670512 
0.478456 
0.289638 
0.132584 
0.0310325 
0.000343567 
0.0451736 
0.158765 
0.323959 
0.515788 
0.705245 
0.863669 
0.967082 
0.999823 
0.956917 
0.844841 
0.680546 
0.488898 
0.298916 
0.139378 
0.0344639 
8.39305e-05 
0.0414665 
0.152358 
0.315963 
0.507488 
0.697892 
0.858295 
0.964354 
0.999963 
0.9597 
0.849657 
0.686523 
0.495055 
0.304322 
0.143295 
0.0364437 
1.66132e-05 
0.0395669 
0.149102 
0.311989 
0.503475 
0.694448 
0.855861 
0.963155 
0.99999 
0.960744 
0.851372 
0.688504 
0.496923 
0.305796 
0.14423 
0.0368436 
1.07585e-05 
0.0393614 
0.148917 
0.311997 
0.503751 
0.694949 
0.856432 
0.963561 
0.99998 
0.960114 
0.850028 
0.686508 
0.494502 
0.30332 
0.142158 
0.035638 
4.58825e-05 
0.0408374 
0.151798 
0.315986 
0.508317 
0.699392 
0.859991 
0.965547 
0.999897 
0.95777 
0.845592 
0.680515 
0.487792 
0.296923 
0.137134 
0.0329041 
0.000211892 
0.0440838 
0.157817 
0.323998 
0.51717 
0.707725 
0.866445 
0.968983 
0.999598 
0.953574 
0.837955 
0.670465 
0.476799 
0.286678 
0.129295 
0.028823 
0.000708985 
0.0492889 
0.167118 
0.336108 
0.5303 
0.71985 
0.875615 
0.973637 
0.998826 
0.947289 
0.826936 
0.656268 
0.461538 
0.272713 
0.118862 
0.0236826 
0.00184721 
0.0567369 
0.179915 
0.35242 
0.547681 
0.735608 
0.887232 
0.979165 
0.997217 
0.938585 
0.812294 
0.637812 
0.442051 
0.255218 
0.106154 
0.017881 
