0.102581 
0.459049 
0.766677 
0.630015 
0.914182 
0.324119 
0.903193 
0.264333 
0.810818 
0.481049 
0.984227 
0.0552525 
0.322328 
0.643217 
0.768177 
0.682418 
0.856866 
0.497141 
0.999561 
0.00631528 
0.161692 
0.329131 
0.68375 
0.723427 
0.772615 
0.697959 
0.837284 
0.550152 
0.985577 
0.0713166 
0.373235 
0.704361 
0.708353 
0.801856 
0.633768 
0.921252 
0.304211 
0.878494 
0.327086 
0.89624 
0.285012 
0.842438 
0.41381 
0.967299 
0.0924757 
0.43145 
0.752373 
0.648085 
0.892193 
0.39267 
0.967232 
0.0863585 
0.413344 
0.74018 
0.663958 
0.871059 
0.454843 
0.995855 
0.00677481 
0.162211 
0.330535 
0.68564 
0.72138 
0.776409 
0.689949 
0.849418 
0.518113 
0.996525 
0.0233874 
0.220373 
0.465048 
0.803743 
0.556715 
0.973111 
0.115874 
0.499902 
0.777338 
0.621679 
0.924756 
0.290027 
0.858707 
0.374737 
0.941958 
0.162842 
0.612624 
0.747855 
0.710456 
0.811787 
0.612742 
0.942446 
0.232707 
0.765122 
0.565049 
0.958027 
0.168416 
0.630884 
0.733906 
0.739768 
0.760828 
0.725183 
0.792946 
0.657647 
0.894053 
0.390331 
0.965934 
0.0899711 
0.423668 
0.747458 
0.654468 
0.883908 
0.417472 
0.982013 
0.0438032 
0.284542 
0.585976 
0.80288 
0.594856 
0.952776 
0.194397 
0.689009 
0.676074 
0.841155 
0.534247 
0.991285 
0.0466748 
0.296722 
0.605298 
0.793616 
0.620286 
0.930824 
0.271122 
0.83051 
0.438188 
0.977039 
0.0670167 
0.357337 
0.687474 
0.727001 
0.768028 
0.707837 
0.821718 
0.589592 
0.961818 
0.163355 
0.619829 
0.742131 
0.722567 
0.791489 
0.659888 
0.891105 
0.399244 
0.971912 
0.0726714 
0.37331 
0.704837 
0.707687 
0.802981 
0.63115 
0.92403 
0.295064 
0.866054 
0.357303 
0.92715 
0.203453 
0.700993 
0.662251 
0.861269 
0.479842 
0.999173 
0.00250603 
0.147994 
0.293907 
0.631521 
0.770965 
0.673573 
0.868832 
0.46359 
0.997885 
0.00220991 
0.146548 
0.29014 
0.625415 
0.775352 
0.663231 
0.882451 
0.424074 
0.98543 
0.0340035 
0.253048 
0.530376 
0.815685 
0.550024 
0.979141 
0.0934036 
0.437723 
0.755693 
0.643983 
0.897412 
0.37677 
0.955411 
0.120446 
0.507169 
0.778645 
0.621279 
0.925489 
0.287688 
0.855351 
0.38256 
0.947877 
0.146427 
0.573532 
0.768348 
0.661186 
0.882692 
0.422806 
0.984786 
0.0358494 
0.259033 
0.541483 
0.814804 
0.55533 
0.976962 
0.102419 
0.463177 
0.767846 
0.629036 
0.915425 
0.320154 
0.89845 
0.276678 
0.829885 
0.441323 
0.978255 
0.0638171 
0.347692 
0.676169 
0.738641 
0.745419 
0.752524 
0.742005 
0.762591 
0.722579 
0.797608 
0.647085 
0.906803 
0.350809 
0.932482 
0.18518 
0.662295 
0.706475 
0.791996 
0.65401 
0.897767 
0.378771 
0.957303 
0.114896 
0.49245 
0.776719 
0.620662 
0.925436 
0.287663 
0.855297 
0.382689 
0.947972 
0.146164 
0.572891 
0.768595 
0.660523 
0.883518 
0.420353 
0.983616 
0.0391513 
0.269672 
0.560601 
0.811321 
0.568818 
0.970142 
0.129483 
0.536006 
0.777369 
0.632448 
0.915142 
0.322013 
0.900777 
0.270614 
0.820655 
0.460851 
0.982646 
0.0546403 
0.319893 
0.639874 
0.770781 
0.676433 
0.865239 
0.473833 
0.999269 
0.000361353 
0.140331 
0.27361 
0.597459 
0.792245 
0.620788 
0.929987 
0.273837 
0.834727 
0.429027 
0.973798 
0.0752476 
0.381778 
0.713174 
0.697885 
0.819556 
0.591535 
0.959941 
0.170102 
0.635479 
0.730104 
0.7474 
0.7465 
0.753266 
0.740999 
0.764538 
0.718635 
0.804359 
0.63146 
0.924157 
0.294774 
0.865662 
0.358236 
0.927998 
0.201149 
0.696299 
0.668162 
0.852965 
0.502716 
0.998485 
0.0118162 
0.180798 
0.376075 
0.739802 
0.653422 
0.882747 
0.420326 
0.983369 
0.039994 
0.272391 
0.565356 
0.81007 
0.573007 
0.967708 
0.138875 
0.560032 
0.772318 
0.649516 
0.896675 
0.380513 
0.958504 
0.111498 
0.48334 
0.77476 
0.621764 
0.92391 
0.29261 
0.862355 
0.366154 
0.934949 
0.182162 
0.656148 
0.712478 
0.781245 
0.677702 
0.86679 
0.470174 
0.998941 
0.000431186 
0.140483 
0.274026 
0.598186 
0.791873 
0.621779 
0.929031 
0.277059 
0.839675 
0.418127 
0.969139 
0.0876319 
0.417703 
0.74327 
0.659967 
0.87655 
0.439036 
0.991238 
0.0182767 
0.201166 
0.42342 
0.780676 
0.592119 
0.947903 
0.209214 
0.71943 
0.636528 
0.893898 
0.38443 
0.961032 
0.104391 
0.464031 
0.768674 
0.627714 
0.916866 
0.315486 
0.892716 
0.291428 
0.851216 
0.394076 
0.956036 
0.123611 
0.515973 
0.779008 
0.6232 
0.923948 
0.292925 
0.862839 
0.364998 
0.933963 
0.184866 
0.662025 
0.706689 
0.791602 
0.654892 
0.896688 
0.382087 
0.959872 
0.107494 
0.47249 
0.771666 
0.624513 
0.920603 
0.303381 
0.87712 
0.330531 
0.900107 
0.27508 
0.827791 
0.445739 
0.979485 
0.0609439 
0.339009 
0.665425 
0.749002 
0.724275 
0.790845 
0.661732 
0.888818 
0.406146 
0.976148 
0.0604307 
0.336385 
0.662179 
0.75197 
0.718026 
0.801531 
0.637368 
0.917718 
0.31585 
0.893458 
0.289461 
0.848455 
0.400357 
0.959933 
0.112775 
0.487338 
0.775629 
0.621266 
0.924596 
0.290389 
0.859208 
0.373566 
0.941034 
0.165399 
0.618538 
0.743824 
0.719261 
0.797174 
0.647007 
0.906754 
0.350929 
0.932596 
0.184863 
0.661607 
0.707166 
0.790778 
0.656739 
0.89441 
0.389058 
0.965015 
0.0926383 
0.431242 
0.752317 
0.648124 
0.892134 
0.392844 
0.967351 
0.0860132 
0.412351 
0.73944 
0.664919 
0.869722 
0.458655 
0.996697 
0.00493955 
0.15594 
0.31457 
0.66321 
0.744241 
0.731941 
0.777021 
0.691916 
0.846944 
0.524831 
0.994859 
0.0312866 
0.24674 
0.518159 
0.815716 
0.546289 
0.980377 
0.0880575 
0.422338 
0.746128 
0.656396 
0.881394 
0.424898 
0.985571 
0.0337604 
0.252276 
0.528922 
0.815738 
0.549468 
0.979346 
0.0925373 
0.435245 
0.754265 
0.645822 
0.895104 
0.383831 
0.960887 
0.104687 
0.464831 
0.768979 
0.627371 
0.917265 
0.314197 
0.891105 
0.295536 
0.856876 
0.381052 
0.947034 
0.148664 
0.578964 
0.766142 
0.667001 
0.875292 
0.444512 
0.993233 
0.0129185 
0.18309 
0.381663 
0.745428 
0.645415 
0.892871 
0.389974 
0.965293 
0.0919908 
0.429425 
0.751186 
0.649599 
0.890247 
0.398544 
0.971135 
0.0750695 
0.380434 
0.711954 
0.699318 
0.817175 
0.597353 
0.955387 
0.1867 
0.672609 
0.694732 
0.811768 
0.608066 
0.946061 
0.219864 
0.740822 
0.604819 
0.927199 
0.277558 
0.839929 
0.417662 
0.968934 
0.0881778 
0.419262 
0.744369 
0.658534 
0.878491 
0.433391 
0.989149 
0.0238818 
0.219855 
0.464149 
0.803345 
0.557305 
0.97276 
0.117232 
0.503547 
0.77776 
0.621941 
0.924659 
0.290401 
0.859245 
0.373475 
0.940961 
0.165601 
0.619004 
0.743496 
0.719968 
0.795975 
0.649746 
0.903529 
0.361056 
0.942238 
0.157856 
0.6005 
0.755413 
0.693322 
0.838545 
0.545731 
0.987401 
0.0636671 
0.349964 
0.678622 
0.736248 
0.750185 
0.743426 
0.759443 
0.728837 
0.786651 
0.671705 
0.875816 
0.444522 
0.993394 
0.0123538 
0.181158 
0.377065 
0.7408 
0.652016 
0.884561 
0.414951 
0.980655 
0.0477056 
0.296893 
0.605858 
0.793253 
0.621211 
0.92993 
0.27414 
0.835206 
0.427978 
0.973388 
0.0763196 
0.384929 
0.716179 
0.69426 
0.825489 
0.576842 
0.970339 
0.131231 
0.540719 
0.776676 
0.635227 
0.912317 
0.331171 
0.911453 
0.242489 
0.774366 
0.550278 
0.966658 
0.13555 
0.551025 
0.774755 
0.64208 
0.905047 
0.354384 
0.935786 
0.176032 
0.642213 
0.725298 
0.757179 
0.72755 
0.788054 
0.668454 
0.880144 
0.431904 
0.988903 
0.0242916 
0.221184 
0.466955 
0.804482 
0.55569 
0.973728 
0.113484 
0.493451 
0.776362 
0.621663 
0.924477 
0.290868 
0.859898 
0.371944 
0.939736 
0.168984 
0.626751 
0.737821 
0.73198 
0.77503 
0.695829 
0.840977 
0.540605 
0.989631 
0.0543622 
0.321096 
0.641357 
0.769672 
0.679005 
0.861675 
0.483823 
0.999878 
0.00119026 
0.14349 
0.282013 
0.611915 
0.784166 
0.641667 
0.908284 
0.344889 
0.926378 
0.202075 
0.697806 
0.666337 
0.855573 
0.495594 
0.999108 
0.00746518 
0.165635 
0.339038 
0.696866 
0.708739 
0.799039 
0.639899 
0.9145 
0.326146 
0.905859 
0.257259 
0.799385 
0.50372 
0.982404 
0.0683324 
0.363041 
0.693673 
0.720353 
0.780427 
0.681696 
0.861471 
0.485155 
0.999987 
0.001203 
0.143569 
0.282218 
0.612261 
0.783955 
0.642197 
0.90769 
0.346771 
0.928308 
0.196763 
0.686864 
0.679636 
0.836033 
0.547651 
0.986037 
0.0689747 
0.366126 
0.696907 
0.716808 
0.786888 
0.667613 
0.880792 
0.429896 
0.988071 
0.0265854 
0.228768 
0.482703 
0.809854 
0.548688 
0.977842 
0.0974329 
0.449073 
0.761688 
0.63638 
0.906718 
0.347845 
0.929209 
0.194334 
0.6818 
0.685509 
0.826931 
0.570871 
0.973832 
0.117689 
0.505127 
0.777874 
0.62219 
0.924479 
0.29102 
0.860129 
0.371399 
0.939296 
0.170199 
0.629515 
0.735694 
0.736379 
0.767087 
0.712438 
0.814588 
0.6071 
0.947635 
0.214563 
0.730472 
0.620524 
0.911679 
0.328633 
0.908128 
0.25143 
0.789715 
0.522209 
0.978089 
0.0886479 
0.423402 
0.74691 
0.655347 
0.882782 
0.420808 
0.983661 
0.0391306 
0.269617 
0.560504 
0.811345 
0.568735 
0.970189 
0.129301 
0.535534 
0.777428 
0.632191 
0.915399 
0.321177 
0.899773 
0.273227 
0.824664 
0.452438 
0.981099 
0.0574296 
0.328342 
0.651491 
0.761385 
0.697667 
0.834325 
0.557133 
0.982122 
0.0853269 
0.414734 
0.740749 
0.663405 
0.871869 
0.452534 
0.995295 
0.00806153 
0.166603 
0.341547 
0.700068 
0.704994 
0.805485 
0.624928 
0.930385 
0.27386 
0.834884 
0.42866 
0.973652 
0.0756305 
0.382905 
0.714256 
0.696584 
0.821697 
0.586263 
0.963854 
0.155643 
0.601509 
0.754036 
0.696114 
0.834284 
0.556763 
0.982254 
0.0847604 
0.413082 
0.739533 
0.66498 
0.869678 
0.458789 
0.996726 
0.00487852 
0.155731 
0.314033 
0.662425 
0.744982 
0.730419 
0.779737 
0.686089 
0.855551 
0.501576 
0.999259 
0.00871947 
0.17012 
0.350154 
0.710764 
0.692017 
0.82693 
0.572826 
0.972858 
0.12156 
0.515444 
0.778444 
0.624158 
0.922946 
0.296236 
0.867463 
0.353975 
0.924078 
0.211767 
0.717616 
0.640102 
0.889872 
0.396736 
0.969668 
0.0794456 
0.393314 
0.723912 
0.684716 
0.840602 
0.53818 
0.990163 
0.0517774 
0.312941 
0.629762 
0.778292 
0.658755 
0.88842 
0.406355 
0.976172 
0.0604117 
0.336332 
0.66211 
0.752032 
0.717893 
0.801754 
0.636848 
0.918287 
0.314 
0.891147 
0.29536 
0.856627 
0.381629 
0.947459 
0.147482 
0.576091 
0.767335 
0.66388 
0.879297 
0.432822 
0.989108 
0.0238512 
0.219738 
0.463904 
0.803243 
0.557451 
0.972672 
0.117575 
0.504465 
0.777852 
0.622035 
0.924605 
0.290593 
0.859519 
0.372831 
0.940448 
0.167018 
0.62226 
0.741162 
0.724956 
0.787409 
0.668994 
0.879307 
0.434329 
0.989853 
0.0217052 
0.212592 
0.448619 
0.796062 
0.568159 
0.965877 
0.14351 
0.57147 
0.76851 
0.660258 
0.883793 
0.419524 
0.983209 
0.0403029 
0.273365 
0.567049 
0.809587 
0.574579 
0.966758 
0.142508 
0.569155 
0.769337 
0.657985 
0.886594 
0.41116 
0.978842 
0.0527653 
0.312729 
0.62977 
0.778221 
0.658898 
0.888239 
0.406899 
0.97649 
0.0594953 
0.333525 
0.65847 
0.755308 
0.710904 
0.813354 
0.609394 
0.945524 
0.221966 
0.744897 
0.598429 
0.932967 
0.25797 
0.808762 
0.483668 
0.983984 
0.056877 
0.327446 
0.650206 
0.762483 
0.695239 
0.83803 
0.547545 
0.98667 
0.0667478 
0.359388 
0.689507 
0.724905 
0.771994 
0.699603 
0.834785 
0.556618 
0.982461 
0.0840055 
0.410885 
0.737886 
0.66711 
0.866686 
0.467267 
0.998211 
0.00215283 
0.146441 
0.289852 
0.624945 
0.775679 
0.66245 
0.883447 
0.421124 
0.984045 
0.0379019 
0.265652 
0.553471 
0.81291 
0.563152 
0.973203 
0.117493 
0.5044 
0.777828 
0.622062 
0.924575 
0.290691 
0.85966 
0.372501 
0.940183 
0.167749 
0.623933 
0.739934 
0.727553 
0.782875 
0.678958 
0.865696 
0.473402 
0.999318 
5.90301e-05 
0.139258 
0.270736 
0.592401 
0.794739 
0.61407 
0.936275 
0.252422 
0.799938 
0.501091 
0.982572 
0.066965 
0.358835 
0.689006 
0.72541 
0.771038 
0.701598 
0.831665 
0.564612 
0.978186 
0.10104 
0.459588 
0.766381 
0.630738 
0.91343 
0.326552 
0.90605 
0.256829 
0.798687 
0.505073 
0.982174 
0.0695281 
0.366683 
0.697615 
0.715986 
0.788361 
0.664358 
0.88505 
0.417314 
0.982259 
0.0429088 
0.281677 
0.581209 
0.804795 
0.589289 
0.95693 
0.179266 
0.656072 
0.711692 
0.782403 
0.675147 
0.870324 
0.460139 
0.997333 
0.00313068 
0.149676 
0.298352 
0.638588 
0.765579 
0.685952 
0.851483 
0.511766 
0.997719 
0.0172503 
0.199549 
0.419615 
0.777991 
0.596306 
0.94434 
0.221792 
0.744192 
0.5996 
0.931944 
0.261472 
0.814539 
0.47192 
0.983657 
0.0544811 
0.319685 
0.639555 
0.771032 
0.675854 
0.866035 
0.471587 
0.999033 
0.000529926 
0.140866 
0.275046 
0.599964 
0.790947 
0.624229 
0.926635 
0.285097 
0.851689 
0.390994 
0.953755 
0.130078 
0.532676 
0.778312 
0.629589 
0.918061 
0.312495 
0.889041 
0.300757 
0.863889 
0.364632 
0.933917 
0.184897 
0.662082 
0.706634 
0.7917 
0.654671 
0.896959 
0.381256 
0.959236 
0.109329 
0.477475 
0.773191 
0.623058 
0.922326 
0.297771 
0.869534 
0.349006 
0.919333 
0.224527 
0.742156 
0.603932 
0.928248 
0.274097 
0.834631 
0.429334 
0.97393 
0.0748946 
0.380737 
0.712166 
0.699091 
0.817559 
0.596419 
0.956135 
0.18399 
0.666682 
0.701022 
0.80118 
0.633019 
0.921752 
0.302484 
0.876185 
0.33277 
0.902563 
0.268735 
0.818061 
0.466179 
0.983347 
0.0538263 
0.317491 
0.636472 
0.77337 
0.670409 
0.873398 
0.45058 
0.995043 
0.00836167 
0.16759 
0.344006 
0.703171 
0.701301 
0.811729 
0.610123 
0.944475 
0.22551 
0.751651 
0.587595 
0.942032 
0.226468 
0.752813 
0.585803 
0.943464 
0.221413 
0.743167 
0.601259 
0.930471 
0.266496 
0.82267 
0.455008 
0.981394 
0.0571871 
0.327658 
0.650565 
0.762167 
0.695936 
0.836971 
0.550298 
0.985433 
0.071859 
0.374865 
0.70602 
0.706431 
0.805177 
0.626027 
0.929322 
0.277443 
0.840381 
0.416534 
0.968382 
0.0896846 
0.423556 
0.747309 
0.654696 
0.883614 
0.418342 
0.98245 
0.0425602 
0.280587 
0.579379 
0.805491 
0.587231 
0.958406 
0.173836 
0.643849 
0.72299 
0.761337 
0.719206 
0.802513 
0.635614 
0.919699 
0.309417 
0.885316 
0.310102 
0.875945 
0.335696 
0.906012 
0.259683 
0.803663 
0.495279 
0.983519 
0.0619616 
0.343432 
0.670832 
0.743907 
0.734805 
0.77218 
0.702214 
0.831127 
0.566065 
0.977368 
0.10426 
0.468557 
0.769801 
0.626918 
0.917917 
0.312122 
0.888491 
0.302168 
0.865753 
0.360216 
0.930053 
0.195462 
0.684535 
0.682304 
0.83192 
0.558222 
0.980969 
0.0896117 
0.427117 
0.749249 
0.652346 
0.886741 
0.409064 
0.977503 
0.0567017 
0.324943 
0.646997 
0.765095 
0.689385 
0.84678 
0.524478 
0.994866 
0.0311558 
0.246301 
0.517315 
0.815677 
0.546122 
0.980418 
0.0878671 
0.421785 
0.745754 
0.656884 
0.880742 
0.426812 
0.986423 
0.031383 
0.244534 
0.514134 
0.815454 
0.54567 
0.980492 
0.0874775 
0.420651 
0.744978 
0.657894 
0.879388 
0.430778 
0.988105 
0.0267341 
0.229284 
0.483758 
0.810152 
0.548345 
0.978045 
0.0966392 
0.446831 
0.760577 
0.637766 
0.905047 
0.35309 
0.934411 
0.179909 
0.650803 
0.717589 
0.771855 
0.697677 
0.837452 
0.549667 
0.985793 
0.0704241 
0.370542 
0.701579 
0.711544 
0.796277 
0.646583 
0.906924 
0.350309 
0.931974 
0.186592 
0.665341 
0.703375 
0.797409 
0.641744 
0.91218 
0.333527 
0.914279 
0.234887 
0.760863 
0.573653 
0.952617 
0.18855 
0.675946 
0.691177 
0.817623 
0.5939 
0.95783 
0.177716 
0.652749 
0.714848 
0.776638 
0.68754 
0.852703 
0.509185 
0.998237 
0.0146388 
0.190609 
0.399164 
0.761704 
0.621377 
0.920323 
0.303278 
0.876889 
0.331121 
0.900763 
0.273388 
0.825225 
0.451191 
0.980816 
0.058024 
0.33015 
0.65391 
0.759323 
0.702204 
0.827284 
0.575058 
0.971819 
0.125728 
0.526433 
0.778226 
0.627886 
0.919578 
0.30746 
0.882562 
0.31704 
0.884495 
0.314637 
0.881867 
0.321085 
0.889594 
0.301802 
0.865559 
0.360611 
0.930396 
0.194529 
0.682586 
0.684555 
0.828416 
0.567125 
0.976067 
0.108999 
0.481595 
0.773763 
0.623182 
0.92239 
0.297617 
0.869327 
0.349503 
0.919816 
0.223234 
0.739724 
0.607701 
0.924724 
0.285932 
0.852412 
0.389435 
0.95272 
0.132951 
0.539994 
0.77739 
0.633605 
0.914065 
0.32554 
0.904963 
0.259666 
0.803318 
0.496019 
0.983451 
0.0624195 
0.344855 
0.672581 
0.742212 
0.738252 
0.76589 
0.715263 
0.809947 
0.618249 
0.937429 
0.250083 
0.796079 
0.508561 
0.981279 
0.0736493 
0.379125 
0.71038 
0.701281 
0.81392 
0.605244 
0.948815 
0.210236 
0.721845 
0.633058 
0.897915 
0.372066 
0.951255 
0.132459 
0.538252 
0.777702 
0.632467 
0.915224 
0.321776 
0.900496 
0.271346 
0.821783 
0.458496 
0.982265 
0.0552422 
0.321707 
0.642412 
0.768801 
0.680987 
0.858891 
0.491554 
0.999851 
0.00360554 
0.152128 
0.304665 
0.6484 
0.757551 
0.703802 
0.824456 
0.58209 
0.967128 
0.143529 
0.571894 
0.768305 
0.660776 
0.883144 
0.421449 
0.984142 
0.0376636 
0.264888 
0.552104 
0.813176 
0.562152 
0.973716 
0.115465 
0.498949 
0.777196 
0.621673 
0.924718 
0.290141 
0.858868 
0.37436 
0.941661 
0.163664 
0.61453 
0.746583 
0.713259 
0.807197 
0.623679 
0.931989 
0.268558 
0.826593 
0.446572 
0.97946 
0.0612789 
0.34006 
0.666751 
0.747762 
0.726857 
0.786345 
0.671733 
0.87569 
0.444867 
0.993499 
0.0120896 
0.180263 
0.374923 
0.738595 
0.655124 
0.880532 
0.426853 
0.986383 
0.0315371 
0.245042 
0.515116 
0.815519 
0.545818 
0.980466 
0.0876121 
0.421042 
0.745247 
0.657544 
0.879858 
0.429403 
0.987534 
0.0283038 
0.23445 
0.494232 
0.812699 
0.54585 
0.97961 
0.090551 
0.429482 
0.750784 
0.650333 
0.889351 
0.401251 
0.972851 
0.0701095 
0.365687 
0.696819 
0.716799 
0.786875 
0.667637 
0.88076 
0.429991 
0.988111 
0.0264771 
0.228411 
0.48197 
0.809642 
0.548934 
0.977697 
0.0980032 
0.450682 
0.762463 
0.635421 
0.907868 
0.344223 
0.925501 
0.204535 
0.702811 
0.659978 
0.864399 
0.471076 
0.998429 
0.00252401 
0.147835 
0.293509 
0.630879 
0.771438 
0.672468 
0.870325 
0.459332 
0.997088 
0.00375884 
0.151847 
0.304004 
0.647379 
0.758417 
0.701909 
0.827435 
0.574617 
0.972093 
0.124674 
0.523668 
0.778361 
0.62679 
0.920599 
0.304076 
0.878106 
0.328088 
0.897378 
0.282097 
0.838213 
0.423163 
0.971645 
0.0807444 
0.397833 
0.727755 
0.67992 
0.84794 
0.518771 
0.996005 
0.0254235 
0.227185 
0.479245 
0.808851 
0.549855 
0.977149 
0.100144 
0.456698 
0.765198 
0.632102 
0.911814 
0.331711 
0.911962 
0.241158 
0.772036 
0.554399 
0.964482 
0.144007 
0.572326 
0.768232 
0.661045 
0.882817 
0.422421 
0.984604 
0.036363 
0.260693 
0.544519 
0.814417 
0.557106 
0.97616 
0.105678 
0.472229 
0.771065 
0.625592 
0.919474 
0.307084 
0.882006 
0.318442 
0.886181 
0.310434 
0.876661 
0.333878 
0.904046 
0.264808 
0.811882 
0.478837 
0.984192 
0.0547088 
0.320576 
0.640785 
0.770084 
0.678043 
0.863013 
0.480084 
0.999735 
0.000577734 
0.141248 
0.27605 
0.601709 
0.790016 
0.626673 
0.9242 
0.293206 
0.863336 
0.363799 
0.932928 
0.187703 
0.668133 
0.70042 
0.802471 
0.630069 
0.92487 
0.292199 
0.862024 
0.366882 
0.935557 
0.180493 
0.652495 
0.715955 
0.774873 
0.691329 
0.847095 
0.524283 
0.994992 
0.0306547 
0.244647 
0.514123 
0.815488 
0.545589 
0.980528 
0.0873314 
0.420227 
0.744686 
0.658274 
0.878877 
0.432273 
0.988708 
0.0250805 
0.223824 
0.472481 
0.806563 
0.55283 
0.975417 
0.106914 
0.475511 
0.772104 
0.624574 
0.92068 
0.303167 
0.876838 
0.331223 
0.900873 
0.273105 
0.824794 
0.452102 
0.981017 
0.0576083 
0.328887 
0.652222 
0.760765 
0.699035 
0.832219 
0.562536 
0.979263 
0.0967408 
0.447491 
0.760868 
0.637425 
0.905465 
0.351783 
0.933133 
0.183464 
0.658582 
0.710166 
0.785437 
0.668571 
0.879219 
0.434437 
0.98988 
0.0216452 
0.212394 
0.448189 
0.795836 
0.568504 
0.965646 
0.14438 
0.573632 
0.767683 
0.662481 
0.881012 
0.427759 
0.987013 
0.0296217 
0.23876 
0.502829 
0.814223 
0.545033 
0.98032 
0.0878769 
0.421785 
0.745756 
0.656879 
0.880749 
0.426794 
0.986415 
0.0314052 
0.244607 
0.514275 
0.815463 
0.54569 
0.980489 
0.0874951 
0.420702 
0.745013 
0.657848 
0.87945 
0.430597 
0.98803 
0.0269379 
0.229956 
0.485131 
0.810529 
0.547926 
0.978296 
0.0956583 
0.444053 
0.759152 
0.639561 
0.902866 
0.359902 
0.940867 
0.161822 
0.609815 
0.749741 
0.706283 
0.81851 
0.596426 
0.956415 
0.183081 
0.664692 
0.703078 
0.797641 
0.641164 
0.912827 
0.331453 
0.91195 
0.241116 
0.771952 
0.554548 
0.964402 
0.144317 
0.573099 
0.767936 
0.661841 
0.881821 
0.425371 
0.985961 
0.0325531 
0.248337 
0.521452 
0.815782 
0.547129 
0.98013 
0.0891566 
0.425519 
0.748243 
0.653642 
0.885041 
0.414122 
0.980278 
0.0487475 
0.300168 
0.610949 
0.790367 
0.628723 
0.922464 
0.299055 
0.87145 
0.344339 
0.914707 
0.236866 
0.764768 
0.566962 
0.957048 
0.172183 
0.639546 
0.72679 
0.753988 
0.733787 
0.776896 
0.692714 
0.845821 
0.527838 
0.994004 
0.0352025 
0.259636 
0.542339 
0.814743 
0.555724 
0.976793 
0.103113 
0.46511 
0.768582 
0.628214 
0.916388 
0.317053 
0.89466 
0.286449 
0.844192 
0.409956 
0.965331 
0.0978611 
0.446561 
0.760836 
0.637205 
0.905667 
0.351132 
0.93249 
0.18525 
0.662456 
0.706311 
0.792284 
0.653363 
0.898555 
0.376345 
0.955371 
0.120448 
0.507161 
0.778645 
0.621275 
0.925493 
0.287677 
0.855334 
0.382599 
0.947906 
0.146348 
0.57334 
0.768422 
0.660987 
0.88294 
0.422069 
0.984439 
0.0368271 
0.262191 
0.547242 
0.814016 
0.558818 
0.975357 
0.108913 
0.481141 
0.773669 
0.623228 
0.922322 
0.297835 
0.869626 
0.348782 
0.919114 
0.225113 
0.743255 
0.602216 
0.929816 
0.268789 
0.826327 
0.447259 
0.979653 
0.060827 
0.33869 
0.665017 
0.749383 
0.723479 
0.792223 
0.65864 
0.892728 
0.394342 
0.968695 
0.0819812 
0.400676 
0.730224 
0.676765 
0.852658 
0.506066 
0.998342 
0.0133276 
0.186056 
0.388534 
0.752083 
0.635729 
0.904459 
0.354173 
0.935387 
0.177209 
0.644836 
0.722997 
0.761622 
0.71868 
0.803414 
0.633516 
0.921957 
0.30202 
0.875581 
0.334246 
0.904165 
0.264575 
0.811522 
0.479565 
0.984204 
0.0548845 
0.321143 
0.641574 
0.769469 
0.679458 
0.861041 
0.48559 
0.99991 
0.00160576 
0.14499 
0.285983 
0.618571 
0.779972 
0.652067 
0.896258 
0.382455 
0.960059 
0.106992 
0.471126 
0.771218 
0.624967 
0.920069 
0.305115 
0.879418 
0.324863 
0.893711 
0.291455 
0.851556 
0.393233 
0.955482 
0.125155 
0.519986 
0.779021 
0.62438 
0.922925 
0.296364 
0.867646 
0.353536 
0.923665 
0.21288 
0.719804 
0.637045 
0.893513 
0.385666 
0.961955 
0.101729 
0.456697 
0.765674 
0.631205 
0.912787 
0.328585 
0.908401 
0.250623 
0.788346 
0.524779 
0.977288 
0.0921467 
0.433481 
0.75329 
0.64705 
0.893545 
0.388577 
0.964365 
0.0946468 
0.436925 
0.755694 
0.64374 
0.897658 
0.376 
0.954791 
0.122226 
0.511837 
0.778937 
0.622101 
0.924875 
0.289796 
0.85839 
0.375477 
0.942537 
0.161242 
0.608899 
0.750269 
0.705073 
0.820432 
0.591698 
0.9601 
0.169632 
0.634406 
0.730982 
0.745643 
0.749835 
0.746865 
0.753357 
0.740944 
0.764658 
0.718392 
0.804771 
0.630497 
0.925167 
0.291428 
0.860952 
0.369409 
0.937663 
0.174701 
0.63966 
0.727434 
0.752986 
0.735781 
0.773276 
0.700385 
0.834062 
0.558572 
0.98147 
0.0879959 
0.422483 
0.746193 
0.656327 
0.881489 
0.424618 
0.985445 
0.0341149 
0.253427 
0.531084 
0.815654 
0.550305 
0.979036 
0.0938488 
0.438994 
0.756408 
0.643064 
0.898556 
0.373252 
0.952548 
0.128651 
0.528505 
0.77873 
0.627511 
0.920065 
0.305891 
0.880511 
0.322142 
0.890554 
0.299452 
0.862454 
0.36795 
0.936718 
0.177206 
0.64523 
0.722594 
0.762376 
0.717157 
0.805993 
0.627474 
0.928277 
0.281069 
0.845859 
0.404252 
0.961943 
0.107343 
0.472683 
0.771662 
0.624579 
0.920544 
0.303579 
0.877383 
0.329883 
0.899389 
0.276932 
0.830577 
0.439774 
0.977778 
0.0649779 
0.351188 
0.680345 
0.734428 
0.753739 
0.736526 
0.772253 
0.702589 
0.830611 
0.567391 
0.976602 
0.107262 
0.476853 
0.772459 
0.624289 
0.921036 
0.302015 
0.875298 
0.335001 
0.904988 
0.262433 
0.808105 
0.486446 
0.98413 
0.0572075 
0.328544 
0.651676 
0.761249 
0.697975 
0.833852 
0.558349 
0.981497 
0.0878374 
0.422021 
0.74588 
0.656734 
0.880946 
0.426214 
0.98616 
0.0321163 
0.246926 
0.518748 
0.815703 
0.546494 
0.980309 
0.088353 
0.423194 
0.746704 
0.655646 
0.882393 
0.421958 
0.984211 
0.0375805 
0.264632 
0.551644 
0.813262 
0.56182 
0.973883 
0.114799 
0.497154 
0.776942 
0.621635 
0.924675 
0.290261 
0.859036 
0.373966 
0.94135 
0.164524 
0.616521 
0.745227 
0.716222 
0.802283 
0.635213 
0.920012 
0.308362 
0.883948 
0.313531 
0.880212 
0.325244 
0.894432 
0.289548 
0.84888 
0.39933 
0.959307 
0.114518 
0.492002 
0.776573 
0.620814 
0.925264 
0.288232 
0.856118 
0.380783 
0.946573 
0.150051 
0.582331 
0.764669 
0.670787 
0.870333 
0.458807 
0.996928 
0.00416849 
0.153261 
0.307668 
0.652957 
0.753609 
0.712319 
0.810722 
0.615656 
0.939791 
0.241926 
0.781817 
0.535391 
0.973217 
0.10912 
0.481079 
0.773722 
0.623108 
0.922442 
0.297438 
0.869079 
0.3501 
0.920393 
0.221686 
0.736794 
0.612188 
0.920385 
0.300337 
0.872685 
0.341453 
0.911783 
0.244605 
0.778385 
0.543024 
0.970169 
0.121656 
0.514898 
0.778523 
0.623838 
0.923249 
0.295228 
0.866062 
0.35733 
0.92718 
0.203369 
0.700823 
0.662469 
0.860968 
0.48068 
0.999215 
0.00260819 
0.148372 
0.294897 
0.633108 
0.769784 
0.676315 
0.865087 
0.474194 
0.999297 
0.000372334 
0.140378 
0.273737 
0.597681 
0.792132 
0.62109 
0.929696 
0.274817 
0.836241 
0.425709 
0.972473 
0.0787226 
0.391964 
0.722635 
0.686332 
0.838099 
0.544707 
0.987582 
0.0627302 
0.347073 
0.675156 
0.739713 
0.743297 
0.756525 
0.734142 
0.777068 
0.692483 
0.846187 
0.526868 
0.994288 
0.0339103 
0.255394 
0.534514 
0.815495 
0.551692 
0.978504 
0.096079 
0.44534 
0.759809 
0.638737 
0.903871 
0.356769 
0.93794 
0.170046 
0.628745 
0.736348 
0.735055 
0.769497 
0.707449 
0.822729 
0.587158 
0.963622 
0.156677 
0.604002 
0.752553 
0.699529 
0.829058 
0.570116 
0.974838 
0.114059 
0.495385 
0.776643 
0.62169 
0.924538 
0.290691 
0.859649 
0.372529 
0.940206 
0.167685 
0.623787 
0.740042 
0.727327 
0.783272 
0.678091 
0.866908 
0.469982 
0.998932 
0.000404921 
0.140386 
0.273767 
0.597733 
0.792105 
0.62116 
0.929629 
0.275044 
0.83659 
0.424942 
0.972154 
0.0795635 
0.394417 
0.724803 
0.683629 
0.842286 
0.533765 
0.991733 
0.044958 
0.291245 
0.596613 
0.79811 
0.608232 
0.941837 
0.233272 
0.766028 
0.563509 
0.958983 
0.164831 
0.622553 
0.740254 
0.726596 
0.784513 
0.67537 
0.87068 
0.459265 
0.997174 
0.00343341 
0.15071 
0.30105 
0.642813 
0.762201 
0.693547 
0.840273 
0.541626 
0.989136 
0.0563957 
0.327456 
0.650074 
0.762626 
0.694934 
0.838495 
0.546336 
0.987196 
0.0645582 
0.352699 
0.681845 
0.73296 
0.756621 
0.730866 
0.782499 
0.680707 
0.863359 
0.479988 
0.999824 
0.000233269 
0.140037 
0.272809 
0.596057 
0.792953 
0.618895 
0.931793 
0.267724 
0.825136 
0.449697 
0.980235 
0.0595664 
0.334874 
0.660115 
0.753863 
0.714008 
0.808248 
0.621605 
0.934092 
0.261448 
0.815141 
0.470564 
0.983536 
0.0544902 
0.319678 
0.639549 
0.771036 
0.675844 
0.866049 
0.471548 
0.999028 
0.000534039 
0.140879 
0.275082 
0.600026 
0.790914 
0.624317 
0.926549 
0.285384 
0.85211 
0.390026 
0.953107 
0.131881 
0.537276 
0.777776 
0.632027 
0.915656 
0.320367 
0.898797 
0.275757 
0.828499 
0.444291 
0.979103 
0.0618132 
0.34164 
0.668737 
0.745883 
0.730744 
0.779476 
0.686704 
0.854661 
0.504008 
0.998984 
0.0104305 
0.176074 
0.364704 
0.727643 
0.670161 
0.859979 
0.485525 
0.999584 
0.00274877 
0.148986 
0.296493 
0.635653 
0.767855 
0.680761 
0.858897 
0.49147 
0.999847 
0.00359705 
0.152097 
0.304583 
0.648274 
0.757658 
0.703569 
0.824824 
0.58117 
0.967761 
0.141145 
0.565938 
0.770432 
0.654922 
0.890304 
0.39998 
0.972213 
0.0718792 
0.370961 
0.702409 
0.710482 
0.798114 
0.642384 
0.911751 
0.334978 
0.915896 
0.230542 
0.75296 
0.586761 
0.942932 
0.22338 
0.74695 
0.595272 
0.935721 
0.248503 
0.792705 
0.515146 
0.979815 
0.0806378 
0.399963 
0.7293 
0.678056 
0.850762 
0.511199 
0.99754 
0.0177155 
0.201111 
0.423131 
0.780496 
0.592392 
0.947673 
0.210029 
0.721067 
0.634216 
0.896593 
0.376155 
0.954611 
0.122855 
0.513495 
0.779003 
0.622468 
0.924579 
0.290801 
0.859827 
0.372105 
0.939865 
0.168628 
0.625941 
0.738434 
0.7307 
0.777313 
0.690967 
0.848316 
0.521153 
0.995816 
0.0268046 
0.231838 
0.488748 
0.811491 
0.546884 
0.978921 
0.0932134 
0.4371 
0.755346 
0.644424 
0.896859 
0.378465 
0.956759 
0.116576 
0.496935 
0.777466 
0.620536 
0.925767 
0.286623 
0.853793 
0.386171 
0.950459 
0.139248 
0.555828 
0.774105 
0.644787 
0.902116 
0.363619 
0.944383 
0.15185 
0.5862 
0.762937 
0.675191 
0.86443 
0.475562 
0.999368 
0.000528616 
0.140962 
0.275294 
0.600396 
0.790718 
0.624831 
0.926039 
0.287085 
0.854588 
0.384306 
0.949135 
0.142933 
0.564964 
0.771409 
0.65275 
0.892955 
0.39194 
0.966886 
0.087292 
0.416018 
0.742137 
0.661412 
0.874571 
0.444761 
0.993119 
0.0133926 
0.184717 
0.385515 
0.749189 
0.639971 
0.899474 
0.369716 
0.949511 
0.13735 
0.550596 
0.775444 
0.640606 
0.906723 
0.3491 
0.930592 
0.190475 
0.673651 
0.69459 
0.812276 
0.606896 
0.947094 
0.216224 
0.733723 
0.615674 
0.916677 
0.312435 
0.888545 
0.302112 
0.865689 
0.360366 
0.930187 
0.195098 
0.683776 
0.683183 
0.830556 
0.561698 
0.979123 
0.0969677 
0.448108 
0.761177 
0.637038 
0.905931 
0.350319 
0.931688 
0.187477 
0.667253 
0.701395 
0.80082 
0.633899 
0.920817 
0.305555 
0.880263 
0.322711 
0.891213 
0.29779 
0.860227 
0.373178 
0.940981 
0.165448 
0.618641 
0.743754 
0.719414 
0.796915 
0.6476 
0.906061 
0.353112 
0.934738 
0.178902 
0.648572 
0.719642 
0.768006 
0.705671 
0.824883 
0.581665 
0.967499 
0.142169 
0.568505 
0.769545 
0.657392 
0.887317 
0.408991 
0.977627 
0.0562576 
0.323562 
0.645103 
0.76663 
0.68592 
0.851841 
0.510861 
0.997885 
0.0163901 
0.196609 
0.412951 
0.773004 
0.604063 
0.937407 
0.245897 
0.788449 
0.523149 
0.977572 
0.090691 
0.429283 
0.750722 
0.650383 
0.889279 
0.401464 
0.972984 
0.0697254 
0.364537 
0.695575 
0.718182 
0.78437 
0.673135 
0.87339 
0.451419 
0.995349 
0.00753435 
0.164753 
0.336929 
0.69412 
0.711906 
0.793496 
0.652518 
0.89983 
0.372466 
0.952202 
0.129532 
0.530754 
0.778554 
0.628535 
0.91909 
0.309111 
0.88471 
0.31167 
0.877912 
0.330889 
0.900785 
0.273255 
0.825014 
0.451638 
0.980916 
0.0578166 
0.32952 
0.653069 
0.760044 
0.700623 
0.829755 
0.568811 
0.975676 
0.110831 
0.486626 
0.774968 
0.622345 
0.923474 
0.294101 
0.864454 
0.361171 
0.930632 
0.193974 
0.681432 
0.685873 
0.826343 
0.572347 
0.972923 
0.121199 
0.514477 
0.778423 
0.623909 
0.923157 
0.295526 
0.866477 
0.356339 
0.926272 
0.205831 
0.705799 
0.656043 
0.869685 
0.456091 
0.995861 
0.00712748 
0.163464 
0.333686 
0.689856 
0.716726 
0.784899 
0.671629 
0.875383 
0.445658 
0.99373 
0.0115147 
0.178313 
0.37024 
0.73366 
0.661982 
0.871377 
0.453409 
0.995456 
0.00775418 
0.165564 
0.338952 
0.696744 
0.708883 
0.798789 
0.640474 
0.913856 
0.328218 
0.908264 
0.25091 
0.788821 
0.523891 
0.977571 
0.0909186 
0.429954 
0.751139 
0.649841 
0.889978 
0.399364 
0.971662 
0.0735467 
0.375925 
0.70749 
0.704597 
0.808288 
0.618696 
0.936559 
0.252924 
0.800921 
0.499142 
0.982837 
0.0654698 
0.354246 
0.683767 
0.73094 
0.760521 
0.723102 
0.796161 
0.650295 
0.903004 
0.362728 
0.943762 
0.153548 
0.590265 
0.760945 
0.680115 
0.857648 
0.494463 
0.999671 
0.00511923 
0.157472 
0.318415 
0.668786 
0.738857 
0.742838 
0.757058 
0.733033 
0.779066 
0.688204 
0.852549 
0.509773 
0.99816 
0.0150876 
0.192153 
0.402736 
0.764759 
0.61674 
0.925118 
0.287452 
0.854876 
0.383689 
0.948699 
0.144143 
0.56794 
0.770404 
0.655576 
0.88958 
0.402189 
0.973596 
0.0678802 
0.358993 
0.689442 
0.724873 
0.772025 
0.699534 
0.834892 
0.556343 
0.9826 
0.0834464 
0.40925 
0.736639 
0.668718 
0.864405 
0.473684 
0.998989 
0.00131525 
0.143672 
0.282517 
0.612763 
0.783648 
0.642966 
0.906826 
0.349508 
0.93107 
0.189131 
0.670785 
0.697673 
0.807137 
0.619136 
0.935847 
0.255271 
0.804878 
0.491327 
0.98363 
0.0603953 
0.338518 
0.664685 
0.749717 
0.722788 
0.793416 
0.65595 
0.896072 
0.384143 
0.961442 
0.102959 
0.460066 
0.767102 
0.629515 
0.914765 
0.322248 
0.900968 
0.270141 
0.819927 
0.462368 
0.982869 
0.054327 
0.318955 
0.638552 
0.771795 
0.674081 
0.868456 
0.464728 
0.998083 
0.0018483 
0.145312 
0.286877 
0.62005 
0.779001 
0.654437 
0.893404 
0.391188 
0.966424 
0.0886014 
0.419764 
0.744794 
0.657947 
0.879273 
0.431104 
0.988237 
0.0263722 
0.228091 
0.481312 
0.809448 
0.549162 
0.977562 
0.0985285 
0.452161 
0.763159 
0.634565 
0.90889 
0.340994 
0.922116 
0.213786 
0.721214 
0.635114 
0.895785 
0.378702 
0.956647 
0.117011 
0.498104 
0.777637 
0.62055 
0.925806 
0.286509 
0.853629 
0.386549 
0.950724 
0.138511 
0.553989 
0.774577 
0.643316 
0.903752 
0.358486 
0.939682 
0.165114 
0.617446 
0.744644 
0.717513 
0.800124 
0.640221 
0.914508 
0.326219 
0.905954 
0.257008 
0.798972 
0.504523 
0.98227 
0.0690357 
0.365185 
0.696005 
0.71778 
0.78512 
0.671497 
0.87561 
0.445012 
0.993534 
0.012009 
0.17999 
0.374271 
0.737916 
0.656074 
0.879286 
0.43051 
0.987936 
0.0272402 
0.230956 
0.487168 
0.811065 
0.547354 
0.978642 
0.0943059 
0.440212 
0.757092 
0.642183 
0.899646 
0.36989 
0.949728 
0.136708 
0.548983 
0.7758 
0.639424 
0.907995 
0.345054 
0.926477 
0.201822 
0.697293 
0.666979 
0.854663 
0.498085 
0.998932 
0.0088378 
0.17044 
0.35095 
0.711725 
0.690817 
0.828842 
0.568007 
0.975783 
0.110227 
0.484963 
0.77459 
0.622583 
0.923156 
0.295131 
0.865891 
0.357746 
0.92756 
0.202336 
0.698722 
0.665129 
0.857261 
0.490951 
0.999314 
0.00533634 
0.158138 
0.320123 
0.671223 
0.736442 
0.747641 
0.747978 
0.750744 
0.745951 
0.755227 
0.737295 
0.771408 
0.704451 
0.827675 
0.574823 
0.972058 
0.124852 
0.524141 
0.778341 
0.626971 
0.920432 
0.30463 
0.878842 
0.326274 
0.895323 
0.287352 
0.845784 
0.406321 
0.963358 
0.103299 
0.461612 
0.767663 
0.628914 
0.91548 
0.319955 
0.898207 
0.277308 
0.830829 
0.439293 
0.977638 
0.0653116 
0.352191 
0.681526 
0.733218 
0.7561 
0.731891 
0.78066 
0.684693 
0.857658 
0.49581 
0.999743 
0.00526674 
0.158019 
0.319808 
0.670777 
0.736886 
0.746761 
0.749655 
0.74752 
0.752155 
0.743297 
0.760256 
0.727298 
0.789383 
0.665653 
0.883847 
0.420993 
0.984089 
0.037712 
0.265033 
0.552365 
0.813126 
0.562341 
0.973619 
0.115846 
0.499977 
0.777331 
0.621715 
0.924723 
0.29014 
0.858867 
0.374362 
0.941663 
0.16366 
0.614521 
0.746589 
0.713245 
0.80722 
0.623625 
0.932043 
0.268375 
0.826302 
0.447192 
0.979619 
0.0609225 
0.338982 
0.665387 
0.749039 
0.724198 
0.790978 
0.661434 
0.889198 
0.405004 
0.975471 
0.062384 
0.342349 
0.669722 
0.744917 
0.732721 
0.775938 
0.694275 
0.843395 
0.534253 
0.991955 
0.044326 
0.28924 
0.593379 
0.799656 
0.60398 
0.945463 
0.220537 
0.742002 
0.603 
0.928876 
0.271898 
0.831209 
0.436777 
0.976594 
0.0681062 
0.360595 
0.691144 
0.723062 
0.775412 
0.692408 
0.845792 
0.527817 
0.994 
0.035212 
0.259667 
0.542395 
0.814736 
0.555757 
0.976779 
0.103171 
0.465273 
0.768643 
0.628147 
0.916468 
0.316798 
0.894346 
0.287255 
0.845342 
0.407378 
0.963948 
0.101667 
0.457117 
0.765792 
0.631109 
0.912911 
0.328191 
0.907947 
0.251824 
0.790368 
0.520982 
0.978455 
0.0870344 
0.418722 
0.743705 
0.659523 
0.877181 
0.437209 
0.990588 
0.0200032 
0.206945 
0.436278 
0.78908 
0.578971 
0.958263 
0.171823 
0.639057 
0.727162 
0.753243 
0.735238 
0.774261 
0.698307 
0.83729 
0.550242 
0.985548 
0.0714449 
0.373622 
0.704756 
0.707897 
0.802649 
0.631929 
0.923209 
0.297775 
0.869804 
0.348297 
0.918634 
0.226401 
0.745662 
0.598428 
0.933197 
0.257259 
0.807586 
0.48603 
0.983926 
0.057785 
0.330322 
0.65405 
0.759222 
0.702432 
0.826927 
0.575957 
0.97124 
0.127943 
0.532215 
0.777771 
0.630519 
0.917048 
0.315786 
0.893172 
0.290243 
0.849559 
0.397851 
0.958413 
0.116999 
0.498599 
0.777647 
0.620679 
0.9257 
0.286868 
0.854152 
0.38534 
0.949874 
0.140877 
0.559878 
0.772982 
0.648183 
0.898272 
0.375591 
0.954605 
0.122706 
0.513087 
0.77899 
0.622371 
0.924658 
0.29053 
0.859441 
0.373012 
0.940592 
0.16662 
0.621346 
0.741824 
0.723548 
0.789847 
0.663574 
0.886403 
0.413362 
0.980204 
0.0487707 
0.300221 
0.611033 
0.790317 
0.62885 
0.922334 
0.299484 
0.872035 
0.34292 
0.913271 
0.240676 
0.771525 
0.55524 
0.964012 
0.145812 
0.576805 
0.766455 
0.665762 
0.876842 
0.439991 
0.991754 
0.0167524 
0.19603 
0.411792 
0.772084 
0.605496 
0.936078 
0.25046 
0.796354 
0.508095 
0.981382 
0.073157 
0.377644 
0.708918 
0.703007 
0.811011 
0.612226 
0.94262 
0.232002 
0.763812 
0.567297 
0.956606 
0.173723 
0.643045 
0.723769 
0.759862 
0.722168 
0.797438 
0.647321 
0.906508 
0.351736 
0.933395 
0.182642 
0.656782 
0.711922 
0.782272 
0.675479 
0.869873 
0.461426 
0.997581 
0.00263983 
0.147995 
0.29395 
0.631585 
0.770918 
0.673681 
0.868685 
0.464008 
0.997956 
0.00208282 
0.146114 
0.288996 
0.623543 
0.776648 
0.660129 
0.88638 
0.412393 
0.979577 
0.0506253 
0.306044 
0.619894 
0.784883 
0.642612 
0.907553 
0.347295 
0.928851 
0.195265 
0.683742 
0.683278 
0.830424 
0.562037 
0.978939 
0.097698 
0.450171 
0.762181 
0.635791 
0.90743 
0.345606 
0.926928 
0.200617 
0.694829 
0.670036 
0.850285 
0.509982 
0.997469 
0.0176009 
0.200692 
0.422193 
0.779835 
0.593425 
0.946804 
0.213107 
0.727216 
0.625371 
0.906514 
0.345133 
0.926122 
0.202925 
0.699555 
0.664132 
0.85867 
0.487062 
0.999367 
0.00398088 
0.153323 
0.307768 
0.653116 
0.753468 
0.71262 
0.810227 
0.61684 
0.938676 
0.245769 
0.788597 
0.522809 
0.977667 
0.0902675 
0.428063 
0.749951 
0.651385 
0.887981 
0.405356 
0.97535 
0.0628979 
0.343931 
0.671679 
0.743032 
0.736571 
0.768966 
0.70892 
0.820401 
0.592923 
0.959301 
0.172617 
0.641245 
0.725239 
0.756982 
0.727891 
0.787445 
0.669803 
0.87835 
0.437152 
0.990911 
0.0188534 
0.203066 
0.427676 
0.783585 
0.587566 
0.95163 
0.195904 
0.691979 
0.672523 
0.84642 
0.520307 
0.995359 
0.0281657 
0.236328 
0.497782 
0.813422 
0.545306 
0.979996 
0.0890683 
0.425218 
0.748051 
0.65389 
0.884714 
0.415093 
0.980789 
0.0472867 
0.295569 
0.603779 
0.794383 
0.618229 
0.932776 
0.264498 
0.819974 
0.460568 
0.982357 
0.0555481 
0.322713 
0.643802 
0.767701 
0.683498 
0.855326 
0.501367 
0.999191 
0.0089013 
0.170742 
0.351686 
0.712612 
0.689705 
0.830605 
0.563539 
0.978343 
0.100183 
0.457169 
0.765363 
0.631933 
0.91202 
0.331056 
0.911222 
0.243131 
0.775488 
0.548279 
0.967668 
0.131589 
0.540871 
0.776742 
0.635143 
0.912417 
0.330854 
0.911093 
0.243448 
0.776038 
0.547297 
0.968153 
0.129677 
0.535927 
0.777447 
0.632272 
0.915329 
0.321407 
0.900051 
0.272504 
0.82356 
0.454765 
0.981579 
0.0564806 
0.32546 
0.647587 
0.764638 
0.690422 
0.84525 
0.528554 
0.9937 
0.0364879 
0.263839 
0.549963 
0.813608 
0.560546 
0.974525 
0.112249 
0.490248 
0.775752 
0.621897 
0.924093 
0.292097 
0.861638 
0.367846 
0.936373 
0.178249 
0.64755 
0.720513 
0.76634 
0.709092 
0.819358 
0.595346 
0.957394 
0.179571 
0.656918 
0.71085 
0.783917 
0.671849 
0.874821 
0.447223 
0.994187 
0.0103739 
0.174436 
0.36085 
0.723302 
0.675944 
0.851604 
0.508461 
0.997941 
0.0154721 
0.193428 
0.405677 
0.767207 
0.612999 
0.928869 
0.274921 
0.836162 
0.425929 
0.972569 
0.0784628 
0.391205 
0.721955 
0.687175 
0.836781 
0.548123 
0.986107 
0.0688724 
0.365829 
0.696587 
0.717165 
0.786243 
0.669033 
0.878911 
0.435408 
0.990255 
0.0206236 
0.208986 
0.440768 
0.791742 
0.574824 
0.961278 
0.160704 
0.613206 
0.746753 
0.712564 
0.808298 
0.621063 
0.934569 
0.259811 
0.812452 
0.476073 
0.983872 
0.0549851 
0.321365 
0.641893 
0.769218 
0.680034 
0.860233 
0.487836 
0.999918 
0.00225069 
0.147304 
0.292077 
0.628571 
0.773115 
0.668534 
0.875567 
0.444237 
0.993202 
0.0129463 
0.183178 
0.381873 
0.745635 
0.645117 
0.893238 
0.388856 
0.9645 
0.0942843 
0.435907 
0.755105 
0.644502 
0.896707 
0.378918 
0.957114 
0.115554 
0.494217 
0.777029 
0.620581 
0.925598 
0.287149 
0.854555 
0.38441 
0.949212 
0.142715 
0.564426 
0.771584 
0.652251 
0.893544 
0.390141 
0.965629 
0.0909267 
0.426395 
0.749253 
0.652122 
0.886983 
0.408331 
0.977084 
0.057906 
0.328655 
0.652023 
0.76091 
0.698708 
0.832722 
0.561248 
0.979964 
0.0939584 
0.439593 
0.756711 
0.642691 
0.899021 
0.371818 
0.951356 
0.132062 
0.53723 
0.777842 
0.631884 
0.915809 
0.319871 
0.898196 
0.277315 
0.830837 
0.439277 
0.977632 
0.065324 
0.352228 
0.68157 
0.733173 
0.756188 
0.731718 
0.78097 
0.684022 
0.858625 
0.493143 
0.999885 
0.00396373 
0.153417 
0.307998 
0.653464 
0.753161 
0.713277 
0.809144 
0.619421 
0.93621 
0.254227 
0.803137 
0.494777 
0.983335 
0.0624445 
0.344899 
0.672638 
0.742156 
0.738366 
0.76568 
0.715694 
0.809227 
0.619964 
0.935778 
0.255732 
0.805673 
0.489742 
0.983735 
0.0595582 
0.335898 
0.661337 
0.752785 
0.716313 
0.804411 
0.630653 
0.924917 
0.292233 
0.86209 
0.366722 
0.935422 
0.180865 
0.653309 
0.715187 
0.776289 
0.688327 
0.851553 
0.512304 
0.997702 
0.0174708 
0.20031 
0.421329 
0.779223 
0.594382 
0.945993 
0.215975 
0.732882 
0.61699 
0.91535 
0.316761 
0.893962 
0.288322 
0.846866 
0.403946 
0.96203 
0.106964 
0.471638 
0.771323 
0.624919 
0.920144 
0.304878 
0.879106 
0.325635 
0.894596 
0.289204 
0.848404 
0.400406 
0.959954 
0.112722 
0.487197 
0.775598 
0.621284 
0.924571 
0.29047 
0.859324 
0.373295 
0.940818 
0.165995 
0.619911 
0.742853 
0.721348 
0.793623 
0.655086 
0.897082 
0.381032 
0.959078 
0.109777 
0.478687 
0.773535 
0.622753 
0.922693 
0.296576 
0.867889 
0.352964 
0.923128 
0.21433 
0.72264 
0.633034 
0.898176 
0.371319 
0.950635 
0.134227 
0.542738 
0.777005 
0.635186 
0.912454 
0.330756 
0.910984 
0.243736 
0.776539 
0.5464 
0.96859 
0.127951 
0.531441 
0.777937 
0.629959 
0.917611 
0.313945 
0.89087 
0.296116 
0.857663 
0.379225 
0.945672 
0.152446 
0.588081 
0.761973 
0.677552 
0.861196 
0.484619 
0.999838 
0.00157397 
0.144855 
0.285626 
0.617977 
0.780359 
0.651119 
0.897387 
0.37898 
0.957373 
0.11473 
0.49201 
0.776637 
0.62069 
0.925388 
0.287818 
0.855521 
0.38217 
0.947594 
0.147215 
0.575455 
0.767591 
0.663204 
0.880153 
0.430303 
0.98809 
0.0266431 
0.22897 
0.483116 
0.809971 
0.548552 
0.977923 
0.0971183 
0.448185 
0.761252 
0.636922 
0.906066 
0.349896 
0.931267 
0.188644 
0.669752 
0.69877 
0.805287 
0.623491 
0.93158 
0.26976 
0.828476 
0.442547 
0.978361 
0.0638227 
0.347741 
0.676226 
0.738586 
0.74553 
0.752315 
0.742414 
0.761826 
0.724125 
0.794931 
0.653184 
0.899544 
0.373481 
0.953056 
0.127082 
0.524448 
0.778962 
0.625835 
0.921628 
0.300705 
0.873589 
0.339161 
0.909396 
0.250897 
0.789138 
0.523237 
0.977765 
0.0900594 
0.427478 
0.749577 
0.651873 
0.887347 
0.407252 
0.976464 
0.0596904 
0.334136 
0.659266 
0.7546 
0.712424 
0.810861 
0.615381 
0.940056 
0.241012 
0.78019 
0.538365 
0.971992 
0.114137 
0.494748 
0.776634 
0.621518 
0.924682 
0.290203 
0.858951 
0.374166 
0.941509 
0.164085 
0.615506 
0.745922 
0.714707 
0.804805 
0.629317 
0.926256 
0.287773 
0.855711 
0.381675 
0.947224 
0.148245 
0.577959 
0.766565 
0.665901 
0.876712 
0.440382 
0.991889 
0.0163971 
0.194834 
0.409058 
0.769927 
0.608827 
0.93293 
0.261205 
0.814374 
0.472208 
0.983669 
0.0545229 
0.319823 
0.639748 
0.770884 
0.676197 
0.865564 
0.472917 
0.999177 
0.000414391 
0.140494 
0.274048 
0.598225 
0.791852 
0.621833 
0.928979 
0.277234 
0.839942 
0.417535 
0.968861 
0.0883847 
0.419853 
0.744782 
0.657996 
0.879216 
0.431275 
0.988306 
0.0261819 
0.227463 
0.48002 
0.80906 
0.549628 
0.977289 
0.0995996 
0.455172 
0.764529 
0.632903 
0.910865 
0.334729 
0.915332 
0.232137 
0.755886 
0.581956 
0.946634 
0.210209 
0.721133 
0.634168 
0.896658 
0.375955 
0.95445 
0.123317 
0.514699 
0.779039 
0.622757 
0.924341 
0.291608 
0.860975 
0.369403 
0.937665 
0.174694 
0.639643 
0.727448 
0.752958 
0.735835 
0.773177 
0.700593 
0.833738 
0.559405 
0.981035 
0.0897398 
0.427515 
0.749501 
0.652019 
0.887168 
0.40779 
0.976775 
0.0587944 
0.331386 
0.655659 
0.757783 
0.705555 
0.821984 
0.588297 
0.962701 
0.160058 
0.612052 
0.747471 
0.710959 
0.810921 
0.614809 
0.940535 
0.239337 
0.77719 
0.543801 
0.969582 
0.123855 
0.520699 
0.778538 
0.625548 
0.921754 
0.300238 
0.872953 
0.340711 
0.911008 
0.246655 
0.78192 
0.536605 
0.972954 
0.110369 
0.484512 
0.774576 
0.622475 
0.923244 
0.294833 
0.865474 
0.358742 
0.928462 
0.199885 
0.693707 
0.671359 
0.848353 
0.515181 
0.996506 
0.0225717 
0.217568 
0.459112 
0.801193 
0.560418 
0.970853 
0.124578 
0.523038 
0.778427 
0.62647 
0.920904 
0.303065 
0.87676 
0.331403 
0.901069 
0.272598 
0.824021 
0.453734 
0.981362 
0.0569149 
0.326781 
0.649383 
0.763154 
0.693742 
0.840292 
0.54164 
0.989138 
0.0563945 
0.327453 
0.65007 
0.76263 
0.694925 
0.838507 
0.546303 
0.987211 
0.0644989 
0.352518 
0.681633 
0.733179 
0.756197 
0.731703 
0.780998 
0.683962 
0.858712 
0.492905 
0.999895 
0.00385648 
0.153037 
0.307016 
0.651981 
0.754464 
0.710485 
0.813726 
0.60844 
0.946364 
0.219012 
0.739188 
0.607346 
0.92483 
0.285503 
0.851778 
0.390892 
0.953701 
0.130223 
0.533045 
0.778275 
0.629774 
0.917881 
0.313086 
0.889789 
0.29886 
0.861363 
0.370583 
0.938898 
0.171196 
0.631764 
0.733926 
0.739998 
0.760443 
0.725965 
0.791582 
0.660716 
0.890196 
0.40202 
0.97366 
0.067614 
0.358183 
0.688529 
0.725851 
0.77019 
0.703361 
0.828884 
0.571673 
0.974021 
0.117288 
0.50408 
0.777771 
0.622079 
0.924543 
0.290791 
0.859801 
0.372168 
0.939916 
0.168486 
0.625618 
0.738677 
0.730192 
0.778217 
0.689032 
0.851189 
0.513426 
0.997508 
0.0184963 
0.203808 
0.429158 
0.784591 
0.58598 
0.952891 
0.191363 
0.682321 
0.683947 
0.829129 
0.565276 
0.977127 
0.104844 
0.470147 
0.770351 
0.62634 
0.918597 
0.309924 
0.885684 
0.309244 
0.874872 
0.338306 
0.90878 
0.252437 
0.791716 
0.518378 
0.979184 
0.0837657 
0.409183 
0.73669 
0.668613 
0.864546 
0.473288 
0.998949 
0.00133702 
0.143738 
0.282693 
0.613061 
0.783465 
0.643423 
0.906309 
0.351141 
0.932693 
0.184629 
0.661104 
0.707669 
0.789887 
0.658727 
0.89193 
0.396595 
0.970179 
0.077692 
0.388146 
0.719257 
0.690476 
0.831563 
0.561515 
0.979503 
0.0956146 
0.444288 
0.759237 
0.639475 
0.902976 
0.359563 
0.940554 
0.162704 
0.611866 
0.748411 
0.70925 
0.813745 
0.608027 
0.946684 
0.217871 
0.736964 
0.610758 
0.921555 
0.2964 
0.867287 
0.354484 
0.924565 
0.210448 
0.715012 
0.643698 
0.885495 
0.409894 
0.977681 
0.0563442 
0.323855 
0.645504 
0.766308 
0.68665 
0.850782 
0.513727 
0.997362 
0.0191054 
0.205873 
0.433739 
0.787535 
0.581373 
0.95646 
0.17842 
0.653973 
0.713735 
0.778695 
0.68315 
0.859076 
0.491732 
0.99992 
0.00341385 
0.151464 
0.30294 
0.64575 
0.759781 
0.698912 
0.832097 
0.562787 
0.979118 
0.0973116 
0.449104 
0.761663 
0.636435 
0.906658 
0.348036 
0.929402 
0.193801 
0.680682 
0.686782 
0.824919 
0.575915 
0.97066 
0.129876 
0.53721 
0.777191 
0.63316 
0.914423 
0.32435 
0.90356 
0.263347 
0.809245 
0.48422 
0.984201 
0.0562922 
0.325645 
0.647764 
0.764509 
0.690718 
0.844811 
0.52972 
0.993344 
0.0380885 
0.269062 
0.559264 
0.811689 
0.5676 
0.970828 
0.12682 
0.529075 
0.778072 
0.628983 
0.91854 
0.310887 
0.88699 
0.30594 
0.870658 
0.348496 
0.919109 
0.225043 
0.743114 
0.602438 
0.929614 
0.269474 
0.82741 
0.444947 
0.979047 
0.0622013 
0.342846 
0.670236 
0.744449 
0.733687 
0.7742 
0.69796 
0.837759 
0.549013 
0.986105 
0.0691456 
0.366676 
0.697494 
0.716154 
0.788068 
0.665008 
0.884206 
0.419818 
0.983507 
0.0393646 
0.270347 
0.561788 
0.811023 
0.569833 
0.969565 
0.13172 
0.541785 
0.776525 
0.635843 
0.911684 
0.333214 
0.913751 
0.236349 
0.763497 
0.56919 
0.955617 
0.177504 
0.651591 
0.716026 
0.774492 
0.692093 
0.845944 
0.527349 
0.99413 
0.0346137 
0.257703 
0.53879 
0.815135 
0.55378 
0.977642 
0.0996434 
0.455404 
0.76462 
0.632801 
0.910988 
0.33434 
0.914901 
0.233294 
0.757989 
0.578468 
0.949211 
0.200936 
0.702202 
0.65977 
0.864451 
0.470879 
0.9984 
0.0025665 
0.147979 
0.293886 
0.631485 
0.770992 
0.673509 
0.868918 
0.463345 
0.997842 
0.00228646 
0.146809 
0.290829 
0.626538 
0.774564 
0.665107 
0.88004 
0.43118 
0.988505 
0.0254599 
0.225059 
0.475052 
0.807458 
0.551647 
0.976109 
0.104213 
0.468045 
0.769662 
0.62703 
0.917776 
0.312576 
0.889067 
0.300711 
0.86383 
0.364771 
0.934036 
0.18457 
0.661375 
0.707343 
0.790447 
0.657474 
0.893496 
0.391842 
0.966971 
0.0869804 
0.415117 
0.741484 
0.662262 
0.873404 
0.448122 
0.994113 
0.0109036 
0.176279 
0.365323 
0.728314 
0.669263 
0.861257 
0.481976 
0.999496 
0.0019962 
0.146266 
0.289357 
0.624139 
0.776236 
0.661116 
0.885138 
0.416099 
0.981541 
0.0450102 
0.288358 
0.592236 
0.800132 
0.602621 
0.946588 
0.216553 
0.734244 
0.614908 
0.917453 
0.3099 
0.885309 
0.310267 
0.87617 
0.335145 
0.905421 
0.261225 
0.806155 
0.49034 
0.983932 
0.0590574 
0.334368 
0.659356 
0.754568 
0.712508 
0.810726 
0.615705 
0.939752 
0.242061 
0.782059 
0.534949 
0.973393 
0.108392 
0.479081 
0.773186 
0.623549 
0.921898 
0.299205 
0.871498 
0.344257 
0.914628 
0.237074 
0.765138 
0.566327 
0.957452 
0.170677 
0.636097 
0.729686 
0.748268 
0.744848 
0.756405 
0.734825 
0.775897 
0.694987 
0.842403 
0.536887 
0.99103 
0.0483589 
0.302131 
0.61366 
0.78882 
0.632718 
0.918326 
0.312646 
0.889327 
0.300012 
0.862897 
0.366975 
0.935909 
0.179428 
0.650142 
0.718146 
0.770797 
0.699884 
0.834029 
0.558501 
0.981489 
0.0879104 
0.422235 
0.746025 
0.656545 
0.881198 
0.425474 
0.985831 
0.0330352 
0.249918 
0.524464 
0.81581 
0.547969 
0.979866 
0.09031 
0.428848 
0.750379 
0.650861 
0.888668 
0.403299 
0.974114 
0.0664643 
0.354736 
0.684584 
0.730022 
0.762266 
0.71959 
0.802195 
0.636413 
0.918838 
0.312226 
0.888909 
0.301043 
0.864262 
0.363752 
0.933159 
0.186974 
0.66656 
0.702061 
0.79966 
0.636575 
0.917922 
0.315004 
0.892387 
0.292202 
0.852284 
0.391635 
0.954443 
0.128044 
0.527446 
0.778742 
0.627169 
0.920375 
0.304859 
0.87915 
0.325512 
0.894453 
0.289568 
0.848916 
0.399245 
0.959256 
0.114661 
0.492382 
0.776643 
0.62079 
0.925305 
0.288099 
0.855927 
0.381226 
0.9469 
0.149141 
0.580129 
0.76564 
0.668298 
0.873605 
0.449396 
0.994662 
0.00935096 
0.170971 
0.352366 
0.713412 
0.688702 
0.832189 
0.559507 
0.980528 
0.0915053 
0.432568 
0.752645 
0.647934 
0.892432 
0.391958 
0.966743 
0.0877733 
0.417404 
0.743131 
0.660118 
0.876338 
0.439648 
0.99145 
0.0177163 
0.199286 
0.419185 
0.777656 
0.596837 
0.943882 
0.223402 
0.747279 
0.594702 
0.936198 
0.246849 
0.789832 
0.520594 
0.978345 
0.087291 
0.419452 
0.744216 
0.658856 
0.878084 
0.434582 
0.989609 
0.0226318 
0.215705 
0.45532 
0.79941 
0.563085 
0.969183 
0.130974 
0.53969 
0.776878 
0.63452 
0.913049 
0.328808 
0.908757 
0.249654 
0.786703 
0.527844 
0.976268 
0.0965327 
0.445988 
0.760208 
0.638195 
0.904519 
0.354742 
0.936007 
0.175456 
0.640931 
0.726403 
0.755025 
0.731797 
0.780492 
0.685 
0.857206 
0.497053 
0.99966 
0.00593747 
0.160379 
0.325809 
0.679198 
0.728272 
0.763493 
0.716774 
0.806917 
0.625346 
0.930446 
0.273797 
0.834799 
0.428843 
0.973723 
0.0754457 
0.382361 
0.713735 
0.697211 
0.820667 
0.588804 
0.961993 
0.162543 
0.617908 
0.74349 
0.719649 
0.79647 
0.648607 
0.904876 
0.356837 
0.938312 
0.168905 
0.626137 
0.738343 
0.730914 
0.776936 
0.691773 
0.847113 
0.524372 
0.994983 
0.0307125 
0.24484 
0.514496 
0.815514 
0.545643 
0.980519 
0.0873788 
0.420365 
0.744781 
0.65815 
0.879044 
0.431785 
0.988513 
0.0256145 
0.225589 
0.47615 
0.807827 
0.55117 
0.976387 
0.103124 
0.465022 
0.768562 
0.628226 
0.916372 
0.317105 
0.894724 
0.286285 
0.843958 
0.410479 
0.965606 
0.0971061 
0.444455 
0.759753 
0.638574 
0.904013 
0.356311 
0.937504 
0.171267 
0.631513 
0.734181 
0.739501 
0.761365 
0.724107 
0.794821 
0.653409 
0.899266 
0.374337 
0.95376 
0.125066 
0.519229 
0.779088 
0.624019 
0.92326 
0.295247 
0.866095 
0.357251 
0.927108 
0.203564 
0.701219 
0.661964 
0.861666 
0.478734 
0.99911 
0.00239892 
0.147592 
0.292853 
0.629824 
0.772209 
0.670665 
0.872742 
0.452399 
0.995508 
0.00726627 
0.163851 
0.334664 
0.691149 
0.715276 
0.787506 
0.665892 
0.883004 
0.423366 
0.985197 
0.0345954 
0.254962 
0.533957 
0.815493 
0.551529 
0.978561 
0.0958353 
0.444648 
0.759452 
0.639187 
0.903323 
0.358479 
0.939547 
0.165538 
0.618427 
0.743959 
0.718995 
0.797627 
0.64597 
0.907961 
0.347116 
0.928774 
0.195447 
0.684118 
0.682844 
0.831098 
0.560321 
0.979865 
0.0940187 
0.43974 
0.756795 
0.642583 
0.899156 
0.371404 
0.951008 
0.133055 
0.539755 
0.777485 
0.633345 
0.914339 
0.324656 
0.903923 
0.262394 
0.80772 
0.487278 
0.984106 
0.0575389 
0.329592 
0.653076 
0.760058 
0.700598 
0.829795 
0.568709 
0.975736 
0.110597 
0.485985 
0.774824 
0.622433 
0.923355 
0.294487 
0.864994 
0.359886 
0.92949 
0.197088 
0.687929 
0.678321 
0.838016 
0.542504 
0.988209 
0.059889 
0.338289 
0.664264 
0.750137 
0.721916 
0.794916 
0.652554 
0.900218 
0.371372 
0.951297 
0.132117 
0.537359 
0.777826 
0.631954 
0.91574 
0.320097 
0.898471 
0.276603 
0.82977 
0.44157 
0.978328 
0.0636419 
0.347163 
0.675531 
0.739276 
0.744151 
0.754916 
0.737318 
0.771276 
0.704712 
0.827258 
0.575872 
0.971384 
0.127432 
0.530887 
0.777896 
0.629874 
0.917676 
0.313725 
0.890593 
0.29682 
0.858617 
0.377004 
0.943983 
0.157132 
0.599235 
0.75608 
0.691732 
0.840911 
0.539538 
0.9899 
0.0531036 
0.317134 
0.635783 
0.773924 
0.669126 
0.875103 
0.445653 
0.993644 
0.0118153 
0.179343 
0.372717 
0.736289 
0.658345 
0.876278 
0.439277 
0.991265 
0.0182529 
0.201092 
0.423252 
0.780559 
0.592302 
0.947749 
0.209758 
0.720524 
0.634986 
0.8957 
0.378902 
0.956798 
0.116578 
0.496955 
0.777468 
0.620539 
0.925765 
0.286629 
0.853803 
0.386149 
0.950444 
0.13929 
0.555934 
0.774077 
0.644873 
0.90202 
0.363919 
0.944652 
0.151089 
0.584368 
0.763798 
0.673032 
0.867344 
0.467326 
0.998423 
0.0014173 
0.143869 
0.283052 
0.613663 
0.783094 
0.644352 
0.905256 
0.354462 
0.935932 
0.175603 
0.641254 
0.726127 
0.755565 
0.730736 
0.782394 
0.680878 
0.863109 
0.480688 
0.999859 
0.00031935 
0.140357 
0.273664 
0.597556 
0.792195 
0.62092 
0.92986 
0.274265 
0.835389 
0.427578 
0.973229 
0.0767334 
0.386143 
0.717318 
0.692874 
0.827729 
0.571224 
0.973897 
0.117573 
0.504827 
0.777845 
0.622157 
0.924498 
0.290952 
0.860031 
0.371628 
0.939481 
0.169687 
0.628352 
0.736596 
0.734521 
0.770461 
0.705441 
0.825953 
0.57912 
0.969243 
0.135583 
0.551887 
0.774461 
0.642912 
0.904125 
0.357292 
0.93856 
0.168269 
0.62469 
0.739428 
0.72864 
0.780966 
0.683108 
0.859811 
0.48984 
0.999985 
0.00261566 
0.14863 
0.295551 
0.634156 
0.768995 
0.67814 
0.862564 
0.481273 
0.999785 
0.000759125 
0.141915 
0.277825 
0.604774 
0.788333 
0.631051 
0.919727 
0.307965 
0.88331 
0.315152 
0.882203 
0.320327 
0.888709 
0.304026 
0.868469 
0.353679 
0.924064 
0.211719 
0.717512 
0.640249 
0.889696 
0.397268 
0.970016 
0.078439 
0.390366 
0.721279 
0.687986 
0.835502 
0.551424 
0.984601 
0.0750734 
0.384486 
0.715432 
0.695269 
0.823874 
0.580872 
0.967644 
0.141445 
0.566679 
0.770182 
0.655624 
0.88946 
0.402535 
0.973807 
0.0672697 
0.357155 
0.687361 
0.727095 
0.767842 
0.708219 
0.821099 
0.59112 
0.960669 
0.167592 
0.629703 
0.734741 
0.738026 
0.764031 
0.718694 
0.804116 
0.632004 
0.923579 
0.296681 
0.868309 
0.351896 
0.922107 
0.217081 
0.72798 
0.625331 
0.906779 
0.344355 
0.925324 
0.205112 
0.703986 
0.658458 
0.86646 
0.465261 
0.997626 
0.00362841 
0.151543 
0.303201 
0.646145 
0.759453 
0.699636 
0.830977 
0.565645 
0.977515 
0.103636 
0.466821 
0.769184 
0.627578 
0.917141 
0.314628 
0.891648 
0.294153 
0.854984 
0.385427 
0.950196 
0.139869 
0.557362 
0.773695 
0.646045 
0.900704 
0.368034 
0.948274 
0.140803 
0.559207 
0.773235 
0.647491 
0.89907 
0.373119 
0.95258 
0.128509 
0.528134 
0.778756 
0.627348 
0.92022 
0.305379 
0.879837 
0.323812 
0.892497 
0.294538 
0.855813 
0.383448 
0.948774 
0.143829 
0.567156 
0.770676 
0.654818 
0.890491 
0.399431 
0.971865 
0.0728844 
0.373951 
0.705491 
0.706928 
0.804291 
0.628095 
0.927209 
0.284512 
0.850949 
0.392667 
0.954857 
0.127013 
0.524804 
0.778884 
0.626096 
0.921374 
0.301545 
0.874724 
0.336393 
0.906475 
0.258553 
0.801833 
0.498878 
0.983104 
0.0644702 
0.351196 
0.6802 
0.734615 
0.753385 
0.737218 
0.770985 
0.705242 
0.8264 
0.578024 
0.969976 
0.132801 
0.544775 
0.775972 
0.637825 
0.909608 
0.33988 
0.921039 
0.216683 
0.726846 
0.62704 
0.904922 
0.350233 
0.931291 
0.188671 
0.66982 
0.698697 
0.80541 
0.623202 
0.931867 
0.268789 
0.826942 
0.445829 
0.979267 
0.0617171 
0.341386 
0.668415 
0.746189 
0.730113 
0.780599 
0.684281 
0.858177 
0.494366 
0.999825 
0.00454425 
0.15547 
0.313284 
0.661335 
0.746003 
0.728313 
0.783468 
0.677993 
0.867091 
0.469474 
0.998869 
0.000478221 
0.140631 
0.274422 
0.598877 
0.791515 
0.622726 
0.92811 
0.280156 
0.844359 
0.407661 
0.963845 
0.102093 
0.458308 
0.766299 
0.630507 
0.913617 
0.325931 
0.905324 
0.258742 
0.801818 
0.498966 
0.983102 
0.0645045 
0.351303 
0.680326 
0.734486 
0.753637 
0.736727 
0.771885 
0.703361 
0.829392 
0.570482 
0.974761 
0.114432 
0.496399 
0.776802 
0.621683 
0.924591 
0.290527 
0.859416 
0.373076 
0.940643 
0.166478 
0.621021 
0.742059 
0.723047 
0.79071 
0.661643 
0.888879 
0.405951 
0.976031 
0.0607678 
0.337417 
0.663501 
0.750759 
0.720583 
0.797193 
0.647362 
0.906391 
0.352086 
0.933737 
0.18169 
0.654703 
0.713922 
0.778631 
0.683332 
0.858821 
0.492438 
0.999895 
0.00371438 
0.15253 
0.305704 
0.649988 
0.756192 
0.706755 
0.819756 
0.593742 
0.958573 
0.175243 
0.647203 
0.719972 
0.767081 
0.707526 
0.821891 
0.589102 
0.962175 
0.162033 
0.616721 
0.744315 
0.717865 
0.799483 
0.641694 
0.912852 
0.331539 
0.912063 
0.240811 
0.771416 
0.555491 
0.963884 
0.146312 
0.578041 
0.76594 
0.667106 
0.875107 
0.445037 
0.993394 
0.01251 
0.181706 
0.378371 
0.74213 
0.650131 
0.886968 
0.407774 
0.976704 
0.0590312 
0.332117 
0.656622 
0.756941 
0.707382 
0.819061 
0.595508 
0.957197 
0.180263 
0.658456 
0.709346 
0.786617 
0.665927 
0.882696 
0.424216 
0.985582 
0.0335177 
0.251464 
0.527394 
0.815778 
0.548921 
0.979542 
0.0917042 
0.432857 
0.752848 
0.647655 
0.892783 
0.390892 
0.966002 
0.089915 
0.423523 
0.747359 
0.654597 
0.883737 
0.417978 
0.982268 
0.0430781 
0.282236 
0.582143 
0.804432 
0.590356 
0.956153 
0.182114 
0.662399 
0.705436 
0.793543 
0.650479 
0.902024 
0.365592 
0.9463 
0.14636 
0.572889 
0.768655 
0.660409 
0.883666 
0.419915 
0.983403 
0.0397544 
0.271607 
0.563992 
0.810444 
0.571773 
0.96844 
0.136062 
0.552904 
0.77424 
0.643647 
0.903316 
0.359838 
0.940937 
0.161583 
0.609252 
0.750102 
0.705475 
0.819797 
0.593265 
0.958897 
0.174041 
0.644479 
0.722412 
0.762438 
0.716985 
0.806276 
0.626806 
0.92896 
0.278786 
0.842427 
0.411967 
0.966117 
0.0958562 
0.440975 
0.757894 
0.640946 
0.90112 
0.365315 
0.945758 
0.148001 
0.576899 
0.767062 
0.664641 
0.878332 
0.435651 
0.990198 
0.0208977 
0.209914 
0.442795 
0.792899 
0.57303 
0.962545 
0.155992 
0.601982 
0.753804 
0.696675 
0.833435 
0.558948 
0.98113 
0.0892751 
0.42617 
0.748635 
0.653146 
0.885695 
0.41218 
0.979235 
0.0517322 
0.309517 
0.625063 
0.781475 
0.651018 
0.89783 
0.377695 
0.956366 
0.117624 
0.499709 
0.77786 
0.620593 
0.925837 
0.286428 
0.853513 
0.386818 
0.950912 
0.137989 
0.552686 
0.774897 
0.642301 
0.904869 
0.354965 
0.936347 
0.174465 
0.63871 
0.728294 
0.751312 
0.739035 
0.767294 
0.712841 
0.814042 
0.60844 
0.946459 
0.218709 
0.7386 
0.60825 
0.923971 
0.288373 
0.855947 
0.381258 
0.946934 
0.149043 
0.579892 
0.765743 
0.668033 
0.873951 
0.448396 
0.994384 
0.0100331 
0.173294 
0.358062 
0.720108 
0.680126 
0.845382 
0.525141 
0.99434 
0.0332099 
0.253058 
0.530155 
0.815732 
0.549851 
0.979214 
0.093103 
0.436865 
0.755203 
0.644613 
0.896623 
0.379186 
0.957326 
0.114944 
0.49259 
0.776743 
0.620656 
0.925448 
0.287625 
0.855243 
0.382816 
0.948064 
0.145908 
0.572265 
0.768833 
0.659881 
0.884316 
0.41798 
0.982443 
0.0424778 
0.280313 
0.57892 
0.805661 
0.586723 
0.958765 
0.172509 
0.64083 
0.72562 
0.756249 
0.729341 
0.784875 
0.675462 
0.870674 
0.459308 
0.997185 
0.0034056 
0.150615 
0.3008 
0.642423 
0.762517 
0.692842 
0.841333 
0.538847 
0.990209 
0.0518164 
0.313081 
0.629963 
0.77815 
0.659095 
0.887995 
0.40763 
0.976914 
0.0582727 
0.32977 
0.653515 
0.759636 
0.701509 
0.828372 
0.572313 
0.973548 
0.119078 
0.50886 
0.778165 
0.622736 
0.924096 
0.29234 
0.862004 
0.366976 
0.935642 
0.180257 
0.651977 
0.71644 
0.773974 
0.693227 
0.844243 
0.531864 
0.992736 
0.0408696 
0.278097 
0.574896 
0.807147 
0.582282 
0.961826 
0.161137 
0.61443 
0.745905 
0.714413 
0.805246 
0.628273 
0.927334 
0.284182 
0.850472 
0.393759 
0.955566 
0.125039 
0.519698 
0.779022 
0.624291 
0.923004 
0.296102 
0.867282 
0.354409 
0.924484 
0.210671 
0.715453 
0.643092 
0.886241 
0.407665 
0.976412 
0.0599907 
0.335072 
0.66048 
0.753511 
0.714752 
0.807012 
0.624533 
0.931189 
0.271273 
0.83087 
0.437386 
0.976777 
0.0676677 
0.359286 
0.689678 
0.724644 
0.772462 
0.698622 
0.836309 
0.552688 
0.984392 
0.0761739 
0.387786 
0.718507 
0.691531 
0.829912 
0.565717 
0.977163 
0.104855 
0.47019 
0.770364 
0.626327 
0.918612 
0.309875 
0.885621 
0.309402 
0.875071 
0.337823 
0.908271 
0.253772 
0.793946 
0.514139 
0.980277 
0.0787563 
0.394407 
0.724554 
0.684024 
0.841698 
0.535313 
0.9912 
0.0472926 
0.298711 
0.608397 
0.791892 
0.624801 
0.926418 
0.285927 
0.852913 
0.388176 
0.951848 
0.135385 
0.546148 
0.776322 
0.63755 
0.90998 
0.338711 
0.919787 
0.220083 
0.733382 
0.617395 
0.915167 
0.317425 
0.894787 
0.286204 
0.843851 
0.410717 
0.96573 
0.096766 
0.443504 
0.759255 
0.639208 
0.903244 
0.358713 
0.939763 
0.164928 
0.617022 
0.744937 
0.716876 
0.801193 
0.637746 
0.917251 
0.317352 
0.895315 
0.284698 
0.841671 
0.415581 
0.968181 
0.0900704 
0.424635 
0.748028 
0.653754 
0.884855 
0.414667 
0.980565 
0.0479276 
0.297589 
0.606946 
0.79265 
0.622792 
0.928394 
0.279309 
0.843095 
0.410498 
0.965359 
0.0979314 
0.446773 
0.760942 
0.637073 
0.905826 
0.350634 
0.931998 
0.186618 
0.665406 
0.703307 
0.797526 
0.641477 
0.912481 
0.332564 
0.913202 
0.237771 
0.766033 
0.56485 
0.95839 
0.167173 
0.628014 
0.736146 
0.735173 
0.769239 
0.707979 
0.821872 
0.589281 
0.962058 
0.162472 
0.617754 
0.743597 
0.719419 
0.79686 
0.647717 
0.905923 
0.353547 
0.93516 
0.177723 
0.645965 
0.721995 
0.763541 
0.714801 
0.809947 
0.618111 
0.937544 
0.249683 
0.795392 
0.509886 
0.981007 
0.0749802 
0.383122 
0.714247 
0.696663 
0.821584 
0.586545 
0.96365 
0.156402 
0.60333 
0.752958 
0.6986 
0.830489 
0.566482 
0.976986 
0.105684 
0.472496 
0.771124 
0.625558 
0.919521 
0.306932 
0.881807 
0.318935 
0.88677 
0.30896 
0.874806 
0.338398 
0.908868 
0.252207 
0.791331 
0.519107 
0.978982 
0.0846717 
0.411835 
0.738704 
0.666012 
0.868224 
0.462916 
0.997514 
0.00332299 
0.150418 
0.30028 
0.641613 
0.763172 
0.691377 
0.84352 
0.533079 
0.992257 
0.0429181 
0.284706 
0.585966 
0.802935 
0.594734 
0.952873 
0.194048 
0.688267 
0.676959 
0.839828 
0.537726 
0.990047 
0.052048 
0.313779 
0.630977 
0.777429 
0.660822 
0.885829 
0.414115 
0.98051 
0.0479516 
0.29765 
0.607043 
0.792596 
0.622934 
0.928255 
0.279776 
0.843797 
0.408921 
0.964524 
0.100224 
0.453141 
0.764016 
0.633256 
0.910381 
0.336251 
0.917004 
0.227637 
0.74761 
0.595391 
0.93584 
0.248169 
0.792132 
0.516235 
0.979539 
0.0819093 
0.403713 
0.732379 
0.674141 
0.856558 
0.495439 
0.999396 
0.0063935 
0.16192 
0.329711 
0.684536 
0.722577 
0.774195 
0.694638 
0.842373 
0.536855 
0.991029 
0.0483538 
0.302114 
0.613634 
0.788835 
0.632679 
0.918367 
0.312512 
0.889157 
0.300442 
0.863468 
0.365627 
0.934768 
0.182562 
0.657011 
0.711644 
0.782757 
0.674423 
0.871324 
0.457283 
0.996742 
0.00436846 
0.153918 
0.30937 
0.655516 
0.751335 
0.71716 
0.802675 
0.634652 
0.920662 
0.306245 
0.881188 
0.320412 
0.888515 
0.304588 
0.869208 
0.351908 
0.92239 
0.216233 
0.726331 
0.627732 
0.904147 
0.352672 
0.933693 
0.182001 
0.655402 
0.713249 
0.779858 
0.680696 
0.862581 
0.481995 
0.999896 
0.000576841 
0.141293 
0.276166 
0.601911 
0.789907 
0.626958 
0.923913 
0.29416 
0.864674 
0.360619 
0.93014 
0.195319 
0.684247 
0.682637 
0.831404 
0.559539 
0.98028 
0.0923657 
0.435022 
0.754106 
0.646042 
0.89483 
0.384667 
0.961512 
0.102886 
0.459876 
0.767022 
0.629609 
0.914656 
0.322599 
0.901387 
0.269048 
0.818232 
0.465887 
0.983322 
0.0538235 
0.317475 
0.63645 
0.773387 
0.67037 
0.87345 
0.45043 
0.995003 
0.00845776 
0.167918 
0.34482 
0.70419 
0.700076 
0.813776 
0.605206 
0.9488 
0.210272 
0.721915 
0.632959 
0.898029 
0.371715 
0.950961 
0.133299 
0.540386 
0.777388 
0.633726 
0.913951 
0.325914 
0.905401 
0.258512 
0.801441 
0.499706 
0.983005 
0.0650627 
0.353022 
0.682342 
0.732417 
0.757667 
0.728795 
0.786187 
0.672636 
0.874545 
0.448197 
0.994485 
0.00961772 
0.171859 
0.35455 
0.716006 
0.685411 
0.837322 
0.546298 
0.986856 
0.065727 
0.356256 
0.685961 
0.728675 
0.76487 
0.714313 
0.811088 
0.615447 
0.94007 
0.240988 
0.78015 
0.538438 
0.971961 
0.114264 
0.495092 
0.77669 
0.621511 
0.924705 
0.29013 
0.858848 
0.374408 
0.941699 
0.163559 
0.614287 
0.746747 
0.712899 
0.80779 
0.622277 
0.933379 
0.263852 
0.819054 
0.462465 
0.982635 
0.0551622 
0.321561 
0.6422 
0.76897 
0.680601 
0.859436 
0.490047 
0.999891 
0.00301337 
0.150024 
0.299195 
0.639921 
0.764525 
0.688335 
0.848012 
0.521119 
0.995729 
0.027101 
0.232821 
0.490737 
0.811965 
0.546432 
0.979207 
0.0921015 
0.433924 
0.753494 
0.646816 
0.893848 
0.387656 
0.963703 
0.0965596 
0.442297 
0.758679 
0.639903 
0.902387 
0.361378 
0.942221 
0.158007 
0.600866 
0.755201 
0.693817 
0.837803 
0.547665 
0.986563 
0.0671538 
0.360621 
0.690886 
0.72342 
0.774768 
0.693772 
0.843735 
0.533272 
0.992278 
0.0428995 
0.284652 
0.585875 
0.802973 
0.594625 
0.952957 
0.193746 
0.687626 
0.677721 
0.83868 
0.540726 
0.988909 
0.0569176 
0.329053 
0.652222 
0.760816 
0.698941 
0.832366 
0.562158 
0.97947 
0.0959209 
0.44517 
0.759692 
0.638901 
0.903675 
0.357382 
0.938518 
0.168425 
0.625052 
0.739158 
0.729208 
0.779963 
0.685276 
0.856686 
0.498456 
0.999549 
0.00675175 
0.163238 
0.333024 
0.688987 
0.717692 
0.783152 
0.675443 
0.870181 
0.460603 
0.99743 
0.00292728 
0.148978 
0.296526 
0.635701 
0.76782 
0.680842 
0.858783 
0.491787 
0.999836 
0.00372832 
0.152562 
0.305789 
0.650117 
0.756081 
0.706995 
0.81937 
0.59469 
0.957833 
0.177943 
0.653277 
0.714346 
0.77756 
0.685576 
0.855572 
0.501368 
0.999265 
0.00863901 
0.169837 
0.349456 
0.709918 
0.693068 
0.825243 
0.577053 
0.970153 
0.131918 
0.542489 
0.776384 
0.636331 
0.911173 
0.334856 
0.915576 
0.231453 
0.754634 
0.584019 
0.945066 
0.215808 
0.732261 
0.617964 
0.914359 
0.31998 
0.897904 
0.278175 
0.832133 
0.436481 
0.976732 
0.0675487 
0.358902 
0.689249 
0.725105 
0.771599 
0.700427 
0.833501 
0.559919 
0.980753 
0.0908607 
0.430737 
0.751525 
0.649387 
0.890572 
0.397575 
0.97051 
0.0768764 
0.385763 
0.717045 
0.693181 
0.827227 
0.572484 
0.973119 
0.120577 
0.512837 
0.77837 
0.623522 
0.923478 
0.294443 
0.864965 
0.359948 
0.929544 
0.196941 
0.687624 
0.678683 
0.837468 
0.543928 
0.987627 
0.0623388 
0.345854 
0.673679 
0.741169 
0.740371 
0.761981 
0.723225 
0.796405 
0.649818 
0.903582 
0.360924 
0.94212 
0.158188 
0.601281 
0.754961 
0.694376 
0.836964 
0.549845 
0.985586 
0.0711935 
0.372858 
0.703975 
0.708799 
0.801083 
0.635558 
0.919323 
0.310523 
0.886726 
0.306559 
0.871448 
0.346596 
0.917241 
0.230037 
0.75238 
0.58765 
0.942217 
0.2259 
0.751746 
0.587542 
0.942093 
0.22626 
0.752421 
0.586442 
0.942963 
0.223186 
0.746572 
0.595874 
0.935205 
0.250283 
0.795773 
0.509265 
0.981154 
0.0742899 
0.381052 
0.712259 
0.699047 
0.81765 
0.596201 
0.956309 
0.18336 
0.665298 
0.702456 
0.798717 
0.638699 
0.91558 
0.322593 
0.901657 
0.268276 
0.81702 
0.46839 
0.983589 
0.0536555 
0.317015 
0.63579 
0.773881 
0.669212 
0.874988 
0.445987 
0.993744 
0.0115627 
0.178486 
0.370656 
0.734104 
0.66137 
0.872209 
0.451024 
0.99485 
0.00917607 
0.17041 
0.350981 
0.71175 
0.690789 
0.828888 
0.567891 
0.975851 
0.109962 
0.484239 
0.774419 
0.622699 
0.923004 
0.295624 
0.866575 
0.356111 
0.926063 
0.206397 
0.706937 
0.654551 
0.871661 
0.450428 
0.994466 
0.0103523 
0.174443 
0.360861 
0.723316 
0.675926 
0.851631 
0.508386 
0.997952 
0.0154091 
0.193212 
0.40518 
0.766797 
0.613627 
0.928246 
0.277009 
0.839358 
0.418876 
0.969494 
0.0866717 
0.414955 
0.741291 
0.662545 
0.873021 
0.449223 
0.994421 
0.0101488 
0.173713 
0.359083 
0.721284 
0.678593 
0.84768 
0.519016 
0.995898 
0.0258753 
0.228695 
0.482347 
0.809781 
0.54874 
0.977803 
0.0975818 
0.449493 
0.761892 
0.636126 
0.907022 
0.346888 
0.928239 
0.197011 
0.687385 
0.67902 
0.83697 
0.545224 
0.987085 
0.0646115 
0.352833 
0.682004 
0.732796 
0.756941 
0.730233 
0.783629 
0.678245 
0.866823 
0.470251 
0.998969 
0.00035632 
0.140223 
0.273328 
0.596965 
0.792497 
0.620117 
0.930631 
0.271662 
0.831346 
0.436382 
0.976449 
0.0684785 
0.361709 
0.692382 
0.721717 
0.777903 
0.68711 
0.853652 
0.506671 
0.998623 
0.0125124 
0.183283 
0.381983 
0.745761 
0.64493 
0.893468 
0.388157 
0.963999 
0.0957306 
0.439975 
0.757414 
0.641524 
0.900401 
0.367543 
0.947709 
0.142457 
0.563311 
0.771999 
0.651117 
0.894882 
0.386045 
0.962681 
0.0994487 
0.450355 
0.762775 
0.63474 
0.908609 
0.341865 
0.923035 
0.211281 
0.716292 
0.641992 
0.887597 
0.403598 
0.974004 
0.0669243 
0.356138 
0.686197 
0.728329 
0.765501 
0.71302 
0.813234 
0.610295 
0.944794 
0.224552 
0.749845 
0.590521 
0.939673 
0.234755 
0.768229 
0.559781 
0.961228 
0.156354 
0.602482 
0.753554 
0.697275 
0.832524 
0.561286 
0.979889 
0.0942281 
0.440359 
0.757134 
0.642151 
0.899691 
0.369752 
0.949611 
0.137042 
0.549821 
0.775618 
0.640033 
0.907341 
0.347135 
0.928609 
0.195955 
0.685184 
0.681604 
0.833016 
0.55542 
0.982392 
0.0838855 
0.410504 
0.7376 
0.667477 
0.866167 
0.468732 
0.998415 
0.00186839 
0.145483 
0.287322 
0.620787 
0.778511 
0.655629 
0.891954 
0.395601 
0.96943 
0.0799022 
0.394624 
0.725065 
0.683274 
0.842825 
0.532345 
0.992208 
0.0428677 
0.284526 
0.58567 
0.803058 
0.59438 
0.953144 
0.193068 
0.686181 
0.679428 
0.836092 
0.547447 
0.986121 
0.0686228 
0.365058 
0.695757 
0.718086 
0.784573 
0.672695 
0.873988 
0.449696 
0.994891 
0.00863614 
0.168515 
0.346301 
0.706032 
0.697845 
0.817469 
0.596248 
0.956223 
0.183652 
0.665938 
0.701794 
0.799855 
0.63608 
0.918456 
0.313266 
0.890206 
0.297757 
0.859876 
0.374066 
0.941694 
0.163471 
0.614073 
0.746892 
0.712582 
0.808312 
0.621037 
0.934596 
0.25972 
0.812302 
0.476379 
0.983884 
0.0550352 
0.321529 
0.64212 
0.76904 
0.680443 
0.859658 
0.489431 
0.999902 
0.00278809 
0.149222 
0.297101 
0.63662 
0.767111 
0.682463 
0.856488 
0.498115 
0.99948 
0.0068957 
0.163728 
0.334256 
0.690622 
0.715866 
0.786447 
0.668229 
0.879929 
0.432417 
0.989096 
0.0237717 
0.219462 
0.463321 
0.802999 
0.557803 
0.972459 
0.118396 
0.50666 
0.778046 
0.62231 
0.924428 
0.29121 
0.860401 
0.370758 
0.938775 
0.171634 
0.632764 
0.733127 
0.741622 
0.75743 
0.731989 
0.780898 
0.684247 
0.858311 
0.494012 
0.999844 
0.00436728 
0.154845 
0.311678 
0.658963 
0.748202 
0.723747 
0.791444 
0.660336 
0.890585 
0.400824 
0.972913 
0.069775 
0.364669 
0.69572 
0.718021 
0.784663 
0.672494 
0.87426 
0.448912 
0.994675 
0.00916239 
0.170309 
0.350737 
0.711455 
0.691158 
0.828301 
0.569375 
0.974969 
0.113393 
0.493572 
0.776342 
0.621738 
0.924407 
0.291101 
0.860229 
0.371164 
0.939106 
0.170722 
0.630701 
0.734766 
0.738284 
0.763601 
0.719576 
0.802617 
0.635501 
0.919838 
0.308967 
0.884736 
0.311557 
0.877766 
0.331249 
0.901183 
0.272228 
0.823445 
0.454948 
0.981606 
0.0564414 
0.325343 
0.647426 
0.764769 
0.690127 
0.845686 
0.527393 
0.994045 
0.034927 
0.258727 
0.540672 
0.814938 
0.554788 
0.977207 
0.101425 
0.460399 
0.766742 
0.630297 
0.913942 
0.324911 
0.904128 
0.261881 
0.806899 
0.488917 
0.984026 
0.0583055 
0.332008 
0.656272 
0.757295 
0.706631 
0.820268 
0.592539 
0.959509 
0.171819 
0.639422 
0.726803 
0.753931 
0.733893 
0.776704 
0.693124 
0.845203 
0.52948 
0.993509 
0.0374392 
0.266951 
0.555529 
0.812531 
0.564613 
0.972445 
0.120486 
0.512388 
0.778376 
0.623375 
0.923607 
0.294009 
0.864357 
0.361395 
0.930829 
0.193437 
0.680304 
0.687154 
0.824314 
0.577424 
0.969674 
0.133631 
0.546878 
0.775565 
0.639253 
0.908093 
0.344719 
0.926129 
0.202779 
0.699243 
0.664528 
0.858117 
0.488592 
0.99936 
0.00446721 
0.155056 
0.312232 
0.659783 
0.747447 
0.725321 
0.788713 
0.666436 
0.882728 
0.424282 
0.985629 
0.0333767 
0.251005 
0.526525 
0.815793 
0.548625 
0.979645 
0.0912632 
0.43159 
0.752081 
0.648651 
0.891513 
0.394737 
0.968635 
0.0822993 
0.401616 
0.730999 
0.675778 
0.85412 
0.502094 
0.998832 
0.0103958 
0.175906 
0.364301 
0.727196 
0.670761 
0.859122 
0.487898 
0.999592 
0.00343414 
0.151438 
0.302881 
0.645657 
0.759858 
0.698741 
0.83236 
0.562114 
0.979487 
0.0958502 
0.444969 
0.759589 
0.639032 
0.903516 
0.357877 
0.938984 
0.167118 
0.622061 
0.741363 
0.724554 
0.788111 
0.66744 
0.881364 
0.428294 
0.987403 
0.0284286 
0.234834 
0.495006 
0.812857 
0.545732 
0.979694 
0.0902274 
0.428553 
0.750199 
0.651093 
0.888367 
0.404201 
0.97466 
0.0648883 
0.349972 
0.678997 
0.735776 
0.751088 
0.741679 
0.762719 
0.722242 
0.798178 
0.645777 
0.908325 
0.346001 
0.92764 
0.198571 
0.690608 
0.675179 
0.842745 
0.530111 
0.992647 
0.0406571 
0.277367 
0.57366 
0.807565 
0.580996 
0.962682 
0.157931 
0.606818 
0.75085 
0.703416 
0.823002 
0.585322 
0.964808 
0.152205 
0.593218 
0.75865 
0.685234 
0.850347 
0.514386 
0.997176 
0.0199623 
0.20878 
0.440135 
0.7914 
0.575343 
0.960905 
0.162085 
0.616465 
0.74454 
0.717398 
0.80027 
0.639875 
0.914893 
0.324979 
0.9045 
0.260832 
0.8052 
0.492298 
0.983799 
0.0601026 
0.337642 
0.663568 
0.75075 
0.720619 
0.797134 
0.647498 
0.906233 
0.352585 
0.934226 
0.180329 
0.651717 
0.716739 
0.773437 
0.694361 
0.842528 
0.536396 
0.991188 
0.0476581 
0.299898 
0.610232 
0.790842 
0.627526 
0.923685 
0.295017 
0.865881 
0.357739 
0.92755 
0.202366 
0.698783 
0.665053 
0.857368 
0.490655 
0.999322 
0.00521949 
0.157724 
0.319068 
0.669719 
0.737937 
0.744674 
0.753607 
0.739838 
0.76662 
0.714359 
0.811542 
0.614455 
0.941007 
0.237749 
0.774333 
0.548919 
0.967109 
0.133643 
0.54614 
0.775803 
0.638566 
0.908835 
0.342353 
0.923662 
0.209535 
0.712831 
0.64673 
0.881738 
0.421063 
0.983497 
0.0397743 
0.271701 
0.564154 
0.810401 
0.571917 
0.968355 
0.136388 
0.553734 
0.774035 
0.644296 
0.902596 
0.362098 
0.943008 
0.15574 
0.595495 
0.758209 
0.686725 
0.848253 
0.520037 
0.995944 
0.0260195 
0.2292 
0.48338 
0.810077 
0.548399 
0.978005 
0.0967931 
0.447266 
0.760795 
0.637492 
0.905377 
0.352056 
0.9334 
0.182721 
0.656964 
0.711744 
0.782592 
0.674784 
0.87083 
0.458695 
0.997042 
0.00373005 
0.15173 
0.303703 
0.646916 
0.758807 
0.701054 
0.828771 
0.571245 
0.974199 
0.116559 
0.502121 
0.777564 
0.6219 
0.924635 
0.290462 
0.85933 
0.373276 
0.940803 
0.166037 
0.620006 
0.742786 
0.721494 
0.793375 
0.655648 
0.896392 
0.38315 
0.960695 
0.105116 
0.465993 
0.769415 
0.626887 
0.917829 
0.312376 
0.888811 
0.30136 
0.864689 
0.36274 
0.932279 
0.189382 
0.671713 
0.696626 
0.808875 
0.615016 
0.939755 
0.241845 
0.781656 
0.535689 
0.973098 
0.109611 
0.482426 
0.774067 
0.62284 
0.922777 
0.296349 
0.867578 
0.353708 
0.923829 
0.212439 
0.718939 
0.638258 
0.892076 
0.390047 
0.965113 
0.0926097 
0.431188 
0.75228 
0.648173 
0.892072 
0.393032 
0.96748 
0.0856423 
0.411283 
0.738637 
0.66596 
0.868264 
0.462795 
0.997492 
0.00336514 
0.150562 
0.300656 
0.642199 
0.762699 
0.692436 
0.841941 
0.537247 
0.990801 
0.0492661 
0.305008 
0.618027 
0.786132 
0.639519 
0.911002 
0.336315 
0.917266 
0.226877 
0.746191 
0.597649 
0.93389 
0.254886 
0.80361 
0.493954 
0.983431 
0.0618693 
0.343115 
0.670443 
0.744281 
0.73404 
0.773564 
0.699303 
0.835679 
0.554397 
0.983576 
0.0795013 
0.397655 
0.727248 
0.680683 
0.846814 
0.521782 
0.995279 
0.0288896 
0.238761 
0.50261 
0.814224 
0.544965 
0.980341 
0.0877854 
0.421519 
0.745576 
0.657115 
0.880433 
0.427718 
0.986818 
0.0302879 
0.240955 
0.507153 
0.814798 
0.545045 
0.980488 
0.0873037 
0.420133 
0.744622 
0.658356 
0.878766 
0.432597 
0.988837 
0.0247288 
0.22266 
0.47005 
0.805674 
0.554035 
0.974709 
0.109673 
0.483084 
0.774178 
0.622822 
0.922826 
0.296197 
0.867369 
0.35421 
0.924299 
0.211169 
0.716438 
0.641735 
0.887898 
0.40269 
0.97345 
0.0685243 
0.360951 
0.691631 
0.72251 
0.776429 
0.690248 
0.849021 
0.51919 
0.996279 
0.0245787 
0.22438 
0.473437 
0.80693 
0.552316 
0.975713 
0.105758 
0.472323 
0.771109 
0.625535 
0.919537 
0.306877 
0.881736 
0.319114 
0.886983 
0.308428 
0.874132 
0.340035 
0.910577 
0.247713 
0.783723 
0.533299 
0.974269 
0.10494 
0.469565 
0.770245 
0.626369 
0.918539 
0.310104 
0.885915 
0.308663 
0.874137 
0.34009 
0.910643 
0.247536 
0.78342 
0.533857 
0.974053 
0.105838 
0.472052 
0.771075 
0.62552 
0.91954 
0.306863 
0.881718 
0.319159 
0.887037 
0.308293 
0.87396 
0.340451 
0.911008 
0.246575 
0.781774 
0.536872 
0.972845 
0.110818 
0.485739 
0.774861 
0.622286 
0.923492 
0.294028 
0.864351 
0.361417 
0.930849 
0.193381 
0.680187 
0.687287 
0.824103 
0.57795 
0.969327 
0.13495 
0.550249 
0.774843 
0.641674 
0.90548 
0.353014 
0.934459 
0.179737 
0.65042 
0.717944 
0.771192 
0.699062 
0.835308 
0.55521 
0.983159 
0.081183 
0.402611 
0.731378 
0.675455 
0.854634 
0.500701 
0.998977 
0.0094607 
0.172653 
0.356379 
0.718167 
0.682635 
0.841582 
0.535178 
0.991197 
0.0472622 
0.298611 
0.608242 
0.79198 
0.624573 
0.926644 
0.285171 
0.851807 
0.390721 
0.953573 
0.130585 
0.533972 
0.778176 
0.630246 
0.91742 
0.314601 
0.891696 
0.294011 
0.854787 
0.385882 
0.950517 
0.138976 
0.555138 
0.774286 
0.644227 
0.902741 
0.36166 
0.942612 
0.15686 
0.59815 
0.756748 
0.690192 
0.843192 
0.533524 
0.992059 
0.0437431 
0.287359 
0.590321 
0.801053 
0.60008 
0.948667 
0.209161 
0.719548 
0.636328 
0.894126 
0.383732 
0.96051 
0.105896 
0.468154 
0.770194 
0.626043 
0.918813 
0.309191 
0.884738 
0.311618 
0.87785 
0.331041 
0.900953 
0.272822 
0.824354 
0.453033 
0.981217 
0.0572039 
0.327658 
0.65057 
0.762162 
0.695948 
0.836953 
0.550345 
0.985411 
0.0719475 
0.375131 
0.706289 
0.706118 
0.805716 
0.624765 
0.930597 
0.27316 
0.833802 
0.431023 
0.974554 
0.0732933 
0.376014 
0.707495 
0.704617 
0.808261 
0.618761 
0.936497 
0.253139 
0.801285 
0.498427 
0.982928 
0.064941 
0.352618 
0.681873 
0.7329 
0.75673 
0.73065 
0.782885 
0.679868 
0.864545 
0.476666 
0.99961 
0 
0.139134 
0.270393 
0.591796 
0.795026 
0.613288 
0.936985 
0.249978 
0.795757 
0.509207 
0.981152 
0.0742792 
0.381019 
0.712226 
0.699085 
0.817586 
0.596357 
0.956185 
0.183811 
0.666289 
0.701431 
0.800479 
0.634639 
0.920015 
0.308178 
0.883693 
0.314171 
0.880999 
0.323303 
0.892194 
0.295232 
0.856752 
0.381273 
0.947189 
0.148236 
0.577925 
0.766581 
0.665861 
0.876764 
0.440231 
0.991838 
0.0165321 
0.195288 
0.410098 
0.770753 
0.607552 
0.934144 
0.25707 
0.807539 
0.486076 
0.983917 
0.0578289 
0.330459 
0.654232 
0.759065 
0.702775 
0.826389 
0.57731 
0.970358 
0.131307 
0.540929 
0.776641 
0.635358 
0.912181 
0.331608 
0.911947 
0.241172 
0.772056 
0.554364 
0.964502 
0.143931 
0.572138 
0.768304 
0.660852 
0.883058 
0.421708 
0.984266 
0.0373134 
0.26376 
0.550076 
0.813546 
0.560718 
0.974434 
0.112609 
0.491224 
0.775941 
0.621821 
0.924215 
0.291705 
0.861085 
0.369151 
0.937457 
0.175265 
0.64092 
0.726358 
0.755095 
0.731656 
0.780745 
0.684454 
0.857995 
0.49488 
0.999798 
0.00479213 
0.156345 
0.31553 
0.664619 
0.742898 
0.734684 
0.772079 
0.702373 
0.830869 
0.56672 
0.97699 
0.105742 
0.472662 
0.771177 
0.625507 
0.919583 
0.306732 
0.881547 
0.319584 
0.887542 
0.307029 
0.87235 
0.344349 
0.914988 
0.236039 
0.763277 
0.569509 
0.955398 
0.178311 
0.653402 
0.714321 
0.777635 
0.68542 
0.855798 
0.500748 
0.999327 
0.00823012 
0.16841 
0.345928 
0.705584 
0.698387 
0.816576 
0.598425 
0.954473 
0.189983 
0.679715 
0.686869 
0.824515 
0.576875 
0.970029 
0.132279 
0.543407 
0.776225 
0.636919 
0.91056 
0.336827 
0.917742 
0.225617 
0.743843 
0.601352 
0.930608 
0.266104 
0.822048 
0.456316 
0.981644 
0.0567214 
0.326248 
0.648654 
0.763759 
0.692391 
0.84232 
0.53631 
0.991147 
0.0477775 
0.300275 
0.610813 
0.790505 
0.628397 
0.922801 
0.297945 
0.869931 
0.348013 
0.918359 
0.227136 
0.74703 
0.596258 
0.935085 
0.250772 
0.796618 
0.507633 
0.981479 
0.0726835 
0.376217 
0.707495 
0.704677 
0.808173 
0.61897 
0.936296 
0.253824 
0.802447 
0.496142 
0.983195 
0.0633377 
0.347667 
0.675998 
0.738846 
0.74502 
0.75328 
0.74053 
0.765343 
0.71698 
0.807155 
0.624888 
0.930921 
0.272204 
0.832327 
0.43423 
0.975711 
0.0703375 
0.36725 
0.698408 
0.715046 
0.790034 
0.660637 
0.889821 
0.403039 
0.974275 
0.0658421 
0.352841 
0.682382 
0.732311 
0.757854 
0.72842 
0.78685 
0.671175 
0.876518 
0.442484 
0.992747 
0.0140174 
0.186791 
0.390404 
0.753814 
0.633183 
0.907389 
0.344941 
0.926168 
0.202727 
0.699144 
0.664653 
0.857943 
0.489073 
0.999354 
0.00463229 
0.155642 
0.313739 
0.662001 
0.745379 
0.729602 
0.781189 
0.682951 
0.860081 
0.4891 
0.999998 
0.0023464 
0.14767 
0.293037 
0.630123 
0.771991 
0.671175 
0.87206 
0.454359 
0.99599 
0.00615132 
0.160038 
0.325038 
0.678119 
0.729403 
0.761335 
0.721134 
0.799503 
0.642631 
0.91192 
0.334558 
0.915443 
0.231758 
0.755185 
0.583114 
0.945758 
0.213339 
0.727381 
0.625174 
0.906737 
0.344429 
0.925395 
0.204918 
0.703595 
0.658965 
0.865776 
0.467197 
0.997921 
0.00316437 
0.149973 
0.299111 
0.639784 
0.764635 
0.688087 
0.848375 
0.520144 
0.995966 
0.0259712 
0.229043 
0.483057 
0.809985 
0.548504 
0.977943 
0.0970358 
0.447952 
0.761137 
0.637066 
0.905892 
0.35044 
0.931808 
0.187145 
0.666539 
0.702137 
0.799546 
0.636841 
0.917632 
0.315948 
0.893563 
0.289195 
0.848081 
0.401204 
0.960436 
0.111379 
0.483589 
0.774758 
0.621842 
0.923842 
0.292838 
0.862676 
0.365392 
0.934301 
0.183939 
0.660016 
0.708695 
0.788048 
0.66281 
0.886744 
0.412196 
0.97956 
0.0506268 
0.306043 
0.619894 
0.784883 
0.642612 
0.907553 
0.347295 
0.92885 
0.195267 
0.683745 
0.683274 
0.830429 
0.562024 
0.978947 
0.0976684 
0.450087 
0.762141 
0.635841 
0.90737 
0.345793 
0.92712 
0.20009 
0.693747 
0.671366 
0.848355 
0.515176 
0.996508 
0.022566 
0.217548 
0.459071 
0.801174 
0.560445 
0.970836 
0.124643 
0.523208 
0.778421 
0.626533 
0.920847 
0.303257 
0.877016 
0.330773 
0.900373 
0.274395 
0.826755 
0.447946 
0.98005 
0.0596734 
0.335158 
0.660488 
0.753527 
0.714725 
0.807059 
0.624421 
0.931301 
0.270897 
0.830281 
0.438658 
0.977185 
0.0666602 
0.356269 
0.686254 
0.728292 
0.765578 
0.712865 
0.813491 
0.609676 
0.945349 
0.222608 
0.746132 
0.596471 
0.934672 
0.252115 
0.798907 
0.503191 
0.982265 
0.0686509 
0.363989 
0.69471 
0.719212 
0.782516 
0.677177 
0.867829 
0.4673 
0.998563 
0.000915352 
0.142109 
0.278374 
0.605713 
0.787805 
0.632413 
0.918306 
0.312612 
0.889274 
0.300146 
0.863076 
0.366551 
0.935552 
0.180409 
0.6523 
0.716139 
0.774532 
0.692049 
0.846016 
0.527158 
0.994186 
0.0343591 
0.256867 
0.537246 
0.81528 
0.552994 
0.977973 
0.0982809 
0.451568 
0.762871 
0.634926 
0.908461 
0.342349 
0.923546 
0.209885 
0.713528 
0.645781 
0.882925 
0.417548 
0.981764 
0.0446797 
0.287343 
0.590577 
0.800886 
0.600513 
0.948313 
0.210421 
0.722079 
0.632744 
0.898279 
0.370941 
0.950311 
0.135154 
0.545082 
0.776584 
0.636716 
0.910864 
0.335877 
0.916704 
0.228416 
0.749049 
0.593088 
0.937788 
0.241417 
0.780267 
0.538333 
0.972023 
0.114022 
0.494437 
0.776582 
0.621526 
0.92466 
0.290274 
0.859052 
0.37393 
0.941322 
0.164601 
0.616698 
0.745105 
0.716488 
0.801839 
0.636247 
0.918891 
0.312019 
0.888643 
0.301716 
0.86515 
0.361649 
0.931323 
0.191996 
0.677258 
0.690572 
0.818833 
0.590981 
0.960077 
0.16949 
0.634061 
0.731265 
0.745076 
0.750908 
0.744789 
0.757299 
0.733179 
0.778897 
0.688583 
0.851993 
0.511279 
0.997904 
0.0164469 
0.196812 
0.413413 
0.77336 
0.603511 
0.937914 
0.244148 
0.785381 
0.528879 
0.975678 
0.0988445 
0.452509 
0.763378 
0.63426 
0.909245 
0.339869 
0.920918 
0.217045 
0.727549 
0.626016 
0.906044 
0.346687 
0.927721 
0.198527 
0.690538 
0.675261 
0.842623 
0.530433 
0.992546 
0.0411082 
0.278828 
0.576139 
0.806714 
0.583598 
0.960936 
0.16446 
0.62224 
0.740412 
0.726232 
0.785143 
0.673986 
0.872578 
0.453832 
0.995963 
0.00608792 
0.159805 
0.324447 
0.677298 
0.730258 
0.759695 
0.724422 
0.79382 
0.655597 
0.896581 
0.3826 
0.960281 
0.106308 
0.469254 
0.770582 
0.625628 
0.919297 
0.307623 
0.882706 
0.316698 
0.884085 
0.315658 
0.883112 
0.318003 
0.885934 
0.310981 
0.877337 
0.332229 
0.90225 
0.269468 
0.81919 
0.46384 
0.983061 
0.0541077 
0.318309 
0.637637 
0.772492 
0.672461 
0.870649 
0.458475 
0.996919 
0.00410032 
0.153015 
0.307033 
0.651997 
0.754451 
0.710512 
0.813681 
0.608548 
0.946269 
0.219346 
0.739836 
0.606344 
0.925775 
0.28234 
0.847116 
0.401534 
0.960386 
0.111646 
0.484319 
0.774934 
0.621718 
0.924001 
0.292322 
0.861948 
0.367114 
0.93576 
0.179935 
0.651267 
0.717102 
0.772744 
0.695813 
0.840315 
0.542206 
0.988984 
0.0571005 
0.329659 
0.653026 
0.760132 
0.700448 
0.83003 
0.568113 
0.976089 
0.109221 
0.482226 
0.773922 
0.623063 
0.922541 
0.297128 
0.868655 
0.351121 
0.921375 
0.219048 
0.731763 
0.619755 
0.912715 
0.32536 
0.904331 
0.261433 
0.806188 
0.490332 
0.983941 
0.0590234 
0.334263 
0.659219 
0.75469 
0.712247 
0.811156 
0.614677 
0.940713 
0.23874 
0.776118 
0.545728 
0.968674 
0.127469 
0.530173 
0.778052 
0.629352 
0.918199 
0.312015 
0.88843 
0.302306 
0.865932 
0.359793 
0.929676 
0.196491 
0.68668 
0.679798 
0.835772 
0.548323 
0.985738 
0.0702101 
0.369864 
0.700873 
0.712346 
0.794861 
0.649798 
0.90314 
0.362187 
0.943261 
0.154968 
0.593654 
0.759195 
0.684363 
0.851649 
0.510875 
0.997826 
0.016602 
0.197328 
0.414588 
0.774258 
0.602118 
0.939186 
0.239757 
0.777575 
0.543168 
0.969884 
0.122653 
0.517526 
0.77856 
0.624554 
0.922635 
0.297291 
0.868922 
0.350469 
0.920748 
0.220733 
0.734984 
0.614931 
0.917656 
0.309303 
0.884545 
0.31218 
0.878559 
0.329302 
0.899022 
0.2778 
0.831866 
0.436999 
0.976895 
0.0671503 
0.35771 
0.6879 
0.726546 
0.768887 
0.706063 
0.824576 
0.582493 
0.966933 
0.144299 
0.573812 
0.767567 
0.662756 
0.880662 
0.428793 
0.987456 
0.0283946 
0.234734 
0.494805 
0.812816 
0.545761 
0.979673 
0.0903094 
0.428788 
0.750348 
0.650899 
0.888618 
0.40345 
0.974205 
0.0662005 
0.35394 
0.683662 
0.730985 
0.760416 
0.72331 
0.795801 
0.651115 
0.902025 
0.36578 
0.946485 
0.14583 
0.571593 
0.769145 
0.659083 
0.885308 
0.415024 
0.980925 
0.046803 
0.294033 
0.601351 
0.795665 
0.614812 
0.935956 
0.253633 
0.802004 
0.497035 
0.983099 
0.0639372 
0.349522 
0.678219 
0.736622 
0.749436 
0.744866 
0.756724 
0.734251 
0.776947 
0.692753 
0.845783 
0.527945 
0.993973 
0.0353435 
0.260099 
0.543184 
0.814636 
0.556216 
0.976573 
0.10401 
0.467605 
0.769493 
0.627222 
0.917553 
0.313298 
0.889978 
0.2984 
0.860749 
0.372022 
0.940064 
0.167979 
0.624447 
0.739554 
0.728355 
0.781466 
0.682022 
0.861362 
0.485532 
1 
0.0012691 
0.14381 
0.282857 
0.613339 
0.783293 
0.643853 
0.905823 
0.352677 
0.934201 
0.180433 
0.651949 
0.716522 
0.773839 
0.693513 
0.843812 
0.533007 
0.99236 
0.0425334 
0.283472 
0.583921 
0.803775 
0.59231 
0.954709 
0.187384 
0.67395 
0.693295 
0.814143 
0.602352 
0.950984 
0.202416 
0.70592 
0.654843 
0.871037 
0.452164 
0.994913 
0.00929771 
0.170858 
0.352082 
0.713073 
0.689129 
0.831517 
0.56122 
0.979614 
0.0951467 
0.442958 
0.758538 
0.640361 
0.901893 
0.362931 
0.943631 
0.154022 
0.591409 
0.760362 
0.681538 
0.855654 
0.499949 
0.999273 
0.00818417 
0.168231 
0.345487 
0.705035 
0.699052 
0.815475 
0.601098 
0.952277 
0.197878 
0.696491 
0.666913 
0.8545 
0.498476 
0.998894 
0.00908895 
0.171316 
0.353104 
0.714306 
0.687569 
0.833965 
0.55496 
0.98285 
0.0821691 
0.405489 
0.733699 
0.672493 
0.858973 
0.488797 
0.999637 
0.0035431 
0.151841 
0.303925 
0.647265 
0.758512 
0.701701 
0.82776 
0.573799 
0.972612 
0.12268 
0.51842 
0.778468 
0.625004 
0.922212 
0.298698 
0.870853 
0.345808 
0.916182 
0.232944 
0.7577 
0.578892 
0.948892 
0.202084 
0.704581 
0.656689 
0.868606 
0.459119 
0.996506 
0.00575397 
0.158781 
0.321832 
0.673635 
0.734016 
0.75241 
0.738788 
0.768042 
0.711345 
0.816514 
0.602452 
0.951624 
0.200387 
0.701742 
0.660265 
0.863755 
0.472831 
0.998617 
0.0023827 
0.147386 
0.292325 
0.628969 
0.772829 
0.669208 
0.874677 
0.446815 
0.993982 
0.0109723 
0.176481 
0.365816 
0.728857 
0.668531 
0.862293 
0.479088 
0.999357 
0.00162436 
0.144891 
0.285735 
0.618157 
0.780242 
0.651405 
0.897047 
0.380027 
0.958192 
0.112374 
0.485696 
0.775323 
0.621372 
0.924414 
0.29097 
0.860034 
0.371626 
0.93948 
0.169691 
0.628361 
0.736589 
0.734535 
0.770434 
0.705496 
0.825866 
0.579339 
0.969096 
0.13614 
0.553304 
0.774118 
0.644006 
0.902915 
0.361095 
0.942093 
0.158324 
0.601609 
0.754769 
0.694821 
0.836293 
0.551586 
0.984781 
0.0745004 
0.382786 
0.713816 
0.697217 
0.820684 
0.588768 
0.962021 
0.162442 
0.617671 
0.743657 
0.71929 
0.797079 
0.647217 
0.906508 
0.351705 
0.933361 
0.182736 
0.656985 
0.711725 
0.782628 
0.674705 
0.870938 
0.458386 
0.996977 
0.00386564 
0.152195 
0.304909 
0.648766 
0.757241 
0.704478 
0.823386 
0.584758 
0.965257 
0.150547 
0.589185 
0.76072 
0.680207 
0.857463 
0.49496 
0.999643 
0.00536955 
0.158354 
0.320667 
0.671997 
0.735667 
0.74917 
0.745051 
0.756323 
0.735036 
0.775521 
0.695787 
0.841183 
0.540093 
0.989833 
0.0535063 
0.318409 
0.637588 
0.772569 
0.672297 
0.870873 
0.457836 
0.996784 
0.0043863 
0.153994 
0.309565 
0.655808 
0.751072 
0.717716 
0.801739 
0.636828 
0.918302 
0.313951 
0.891084 
0.29552 
0.856845 
0.381124 
0.947087 
0.148515 
0.578603 
0.766296 
0.666603 
0.875807 
0.443016 
0.992761 
0.0141296 
0.187187 
0.391332 
0.754674 
0.631911 
0.908834 
0.340361 
0.921366 
0.215848 
0.725233 
0.629374 
0.902333 
0.358374 
0.939141 
0.166775 
0.621284 
0.741924 
0.723358 
0.790178 
0.662834 
0.887355 
0.410518 
0.97865 
0.0532275 
0.314158 
0.631842 
0.776743 
0.662432 
0.883787 
0.420192 
0.983602 
0.0391502 
0.269664 
0.560588 
0.811324 
0.568807 
0.970148 
0.129459 
0.535943 
0.777377 
0.632414 
0.915177 
0.321901 
0.900644 
0.270962 
0.821192 
0.459731 
0.98247 
0.0549091 
0.320701 
0.641008 
0.769901 
0.678462 
0.86243 
0.481716 
0.99981 
0.000800566 
0.142071 
0.278242 
0.605489 
0.787931 
0.632089 
0.918645 
0.311504 
0.887867 
0.303707 
0.867763 
0.355433 
0.925708 
0.207271 
0.708679 
0.652249 
0.874674 
0.441736 
0.991871 
0.0168658 
0.196459 
0.412766 
0.772841 
0.604324 
0.937167 
0.246723 
0.789892 
0.520433 
0.978384 
0.0871098 
0.418926 
0.743849 
0.659335 
0.877436 
0.436468 
0.990317 
0.020728 
0.209365 
0.441593 
0.792217 
0.574087 
0.961801 
0.158761 
0.608597 
0.749755 
0.705894 
0.819083 
0.595011 
0.957534 
0.179014 
0.655671 
0.712058 
0.781733 
0.6766 
0.868317 
0.46585 
0.998338 
0.00127821 
0.143344 
0.281663 
0.611318 
0.784528 
0.640757 
0.909298 
0.341662 
0.923008 
0.2113 
0.716322 
0.641951 
0.887647 
0.403448 
0.973913 
0.0671876 
0.356931 
0.687104 
0.727369 
0.767323 
0.709287 
0.819365 
0.595389 
0.957367 
0.179671 
0.657141 
0.710632 
0.784309 
0.670993 
0.875976 
0.443881 
0.993176 
0.01293 
0.183113 
0.38172 
0.745483 
0.645335 
0.892969 
0.389674 
0.965081 
0.0926042 
0.431162 
0.752265 
0.648192 
0.892049 
0.393104 
0.967529 
0.0855 
0.410874 
0.738327 
0.666362 
0.8677 
0.464394 
0.997766 
0.00287401 
0.148888 
0.296283 
0.635315 
0.768115 
0.680165 
0.859735 
0.48915 
0.999899 
0.00271454 
0.148958 
0.296412 
0.635525 
0.767953 
0.680536 
0.859213 
0.490596 
0.999871 
0.0032482 
0.150858 
0.301365 
0.643311 
0.761793 
0.694455 
0.838905 
0.545204 
0.987672 
0.0625666 
0.346584 
0.674564 
0.740299 
0.742122 
0.758723 
0.729769 
0.78492 
0.6755 
0.870642 
0.459406 
0.997206 
0.00336333 
0.15047 
0.300422 
0.641834 
0.762994 
0.691776 
0.842926 
0.534649 
0.991723 
0.0452588 
0.292227 
0.598183 
0.797335 
0.610344 
0.939987 
0.239718 
0.777742 
0.542828 
0.970033 
0.122052 
0.515937 
0.778544 
0.624108 
0.92302 
0.295998 
0.867134 
0.354765 
0.924816 
0.209774 
0.713677 
0.645524 
0.883234 
0.416628 
0.981295 
0.0460127 
0.291564 
0.597411 
0.797665 
0.609415 
0.940801 
0.236884 
0.772628 
0.551971 
0.965545 
0.139755 
0.561671 
0.771895 
0.650826 
0.895161 
0.385174 
0.962037 
0.101311 
0.45552 
0.765159 
0.631823 
0.912061 
0.330902 
0.911045 
0.243603 
0.77631 
0.54681 
0.96839 
0.128739 
0.533491 
0.777731 
0.630981 
0.91661 
0.317225 
0.894955 
0.285672 
0.843078 
0.412448 
0.966622 
0.094322 
0.436653 
0.75547 
0.644066 
0.897259 
0.377225 
0.955774 
0.119405 
0.504425 
0.778401 
0.620938 
0.925707 
0.286927 
0.854244 
0.385126 
0.949722 
0.141298 
0.560923 
0.772674 
0.649094 
0.897225 
0.37883 
0.957192 
0.115275 
0.493467 
0.7769 
0.62061 
0.925535 
0.28735 
0.854844 
0.383739 
0.948732 
0.144052 
0.567718 
0.770481 
0.655361 
0.889839 
0.401406 
0.97311 
0.0692842 
0.363208 
0.694124 
0.719783 
0.781451 
0.679482 
0.864604 
0.476397 
0.999578 
3.27901e-05 
0.139242 
0.270685 
0.592312 
0.794781 
0.613955 
0.936379 
0.252062 
0.799325 
0.502288 
0.982394 
0.0679394 
0.361816 
0.692328 
0.721822 
0.777721 
0.687499 
0.853082 
0.508223 
0.998394 
0.0137899 
0.18769 
0.392362 
0.755639 
0.630471 
0.910452 
0.335208 
0.915782 
0.230949 
0.753717 
0.585522 
0.943903 
0.21994 
0.740329 
0.605683 
0.926414 
0.280204 
0.843927 
0.408731 
0.964436 
0.100457 
0.453786 
0.764311 
0.632895 
0.910808 
0.334895 
0.915514 
0.231649 
0.754994 
0.583426 
0.94552 
0.214188 
0.729066 
0.622704 
0.909394 
0.335966 
0.916369 
0.229436 
0.750945 
0.590031 
0.940311 
0.232608 
0.764289 
0.566583 
0.95708 
0.171966 
0.639042 
0.72722 
0.753145 
0.735432 
0.773907 
0.699054 
0.836135 
0.553234 
0.984142 
0.0772016 
0.390843 
0.721288 
0.688114 
0.835335 
0.551861 
0.984396 
0.0759108 
0.386984 
0.717768 
0.692433 
0.828465 
0.569373 
0.97502 
0.113222 
0.493109 
0.776261 
0.621758 
0.924365 
0.291233 
0.860417 
0.370724 
0.938748 
0.17171 
0.632935 
0.732989 
0.7419 
0.75691 
0.733021 
0.779041 
0.688251 
0.852479 
0.509961 
0.998129 
0.0152546 
0.192726 
0.404058 
0.765867 
0.615049 
0.926826 
0.281763 
0.84652 
0.40283 
0.961136 
0.109569 
0.478721 
0.773479 
0.622873 
0.922572 
0.296975 
0.868439 
0.351641 
0.921872 
0.217712 
0.729196 
0.623549 
0.908702 
0.338237 
0.918848 
0.222745 
0.738455 
0.609707 
0.922814 
0.292298 
0.861557 
0.368114 
0.936607 
0.177603 
0.646119 
0.721801 
0.763892 
0.714085 
0.81114 
0.615263 
0.940235 
0.240416 
0.779128 
0.540296 
0.971161 
0.117509 
0.503829 
0.77784 
0.621867 
0.924745 
0.290116 
0.858839 
0.374427 
0.941714 
0.163517 
0.61419 
0.746812 
0.712757 
0.808024 
0.621721 
0.933926 
0.261997 
0.816038 
0.468717 
0.983373 
0.0544969 
0.319651 
0.639515 
0.771061 
0.675786 
0.866129 
0.471324 
0.999002 
0.000558241 
0.140958 
0.275294 
0.600395 
0.790718 
0.62483 
0.92604 
0.287083 
0.854585 
0.384313 
0.94914 
0.142918 
0.564926 
0.771421 
0.652715 
0.892996 
0.391813 
0.966797 
0.0875475 
0.41675 
0.742664 
0.660726 
0.87551 
0.442048 
0.992257 
0.0156063 
0.192191 
0.402976 
0.764941 
0.616469 
0.925394 
0.286533 
0.853543 
0.386774 
0.950884 
0.138064 
0.552872 
0.774852 
0.642444 
0.904712 
0.355461 
0.936822 
0.173136 
0.635726 
0.730779 
0.746373 
0.748501 
0.749443 
0.748418 
0.750511 
0.746498 
0.754202 
0.739313 
0.76769 
0.712172 
0.815168 
0.605721 
0.948838 
0.210308 
0.722001 
0.632834 
0.898172 
0.371272 
0.950589 
0.134361 
0.543076 
0.776946 
0.635402 
0.912231 
0.331477 
0.911801 
0.24156 
0.772739 
0.55316 
0.96515 
0.141422 
0.565871 
0.770545 
0.654684 
0.890598 
0.399092 
0.971647 
0.073515 
0.375823 
0.707388 
0.704716 
0.808085 
0.619176 
0.936098 
0.254502 
0.803592 
0.493879 
0.983421 
0.0618812 
0.343149 
0.670486 
0.74424 
0.734125 
0.773411 
0.699626 
0.835177 
0.555691 
0.982936 
0.0820925 
0.405284 
0.733534 
0.672705 
0.858665 
0.489648 
0.999624 
0.00384415 
0.152912 
0.306699 
0.651499 
0.754884 
0.709581 
0.815196 
0.604882 
0.949465 
0.208049 
0.717448 
0.639246 
0.890664 
0.394278 
0.968027 
0.0841931 
0.407116 
0.735424 
0.67011 
0.862374 
0.479353 
0.999426 
0.00146164 
0.144328 
0.284244 
0.615668 
0.781838 
0.647473 
0.90167 
0.365702 
0.946302 
0.146387 
0.572959 
0.768627 
0.660482 
0.883575 
0.420186 
0.983535 
0.0393805 
0.270408 
0.561894 
0.810996 
0.569925 
0.969513 
0.131922 
0.542306 
0.776437 
0.636171 
0.911343 
0.334312 
0.914973 
0.233072 
0.757583 
0.579144 
0.948719 
0.202714 
0.705881 
0.654989 
0.870866 
0.452661 
0.995039 
0.00900242 
0.169853 
0.349605 
0.710085 
0.692864 
0.825572 
0.57623 
0.970689 
0.129873 
0.53721 
0.77719 
0.633162 
0.914421 
0.324357 
0.903568 
0.263326 
0.809211 
0.484288 
0.9842 
0.0563176 
0.325726 
0.647874 
0.764419 
0.69092 
0.844512 
0.530515 
0.993096 
0.0392007 
0.27268 
0.565594 
0.810049 
0.573125 
0.967642 
0.13913 
0.560677 
0.772126 
0.650079 
0.896022 
0.382524 
0.960048 
0.10705 
0.471287 
0.771271 
0.624913 
0.920133 
0.304908 
0.879145 
0.325538 
0.894485 
0.289487 
0.848803 
0.399502 
0.959411 
0.114229 
0.49123 
0.776427 
0.620868 
0.925174 
0.288521 
0.856533 
0.379815 
0.945852 
0.152051 
0.587145 
0.762427 
0.676427 
0.862741 
0.480303 
0.999688 
0.000811245 
0.142073 
0.278249 
0.605502 
0.787924 
0.632107 
0.918626 
0.311568 
0.887948 
0.303501 
0.867495 
0.356072 
0.926299 
0.20567 
0.705464 
0.656483 
0.869099 
0.457762 
0.996228 
0.00633074 
0.160747 
0.326827 
0.680591 
0.726805 
0.766277 
0.711098 
0.816354 
0.602738 
0.951371 
0.20129 
0.703614 
0.657849 
0.867029 
0.463595 
0.997345 
0.00412571 
0.153233 
0.307587 
0.652836 
0.753715 
0.712091 
0.811098 
0.614757 
0.94063 
0.239023 
0.776627 
0.544814 
0.969108 
0.125743 
0.52566 
0.778362 
0.627385 
0.920068 
0.305843 
0.880444 
0.322307 
0.890748 
0.298964 
0.861802 
0.369483 
0.937989 
0.173707 
0.637421 
0.72932 
0.74926 
0.742987 
0.759923 
0.727822 
0.788439 
0.667748 
0.881098 
0.429107 
0.987752 
0.0274597 
0.231647 
0.488576 
0.811417 
0.546996 
0.978863 
0.0934447 
0.43776 
0.755722 
0.64394 
0.897463 
0.376611 
0.955284 
0.120811 
0.508128 
0.778717 
0.621423 
0.925388 
0.288037 
0.855857 
0.381385 
0.947017 
0.148818 
0.579348 
0.765977 
0.667429 
0.874737 
0.446122 
0.993723 
0.0116767 
0.17888 
0.371604 
0.735113 
0.659977 
0.874092 
0.445605 
0.993321 
0.0129369 
0.183181 
0.381877 
0.745639 
0.645111 
0.893246 
0.388833 
0.964483 
0.0943324 
0.436042 
0.755184 
0.6444 
0.896834 
0.378527 
0.956806 
0.116439 
0.496572 
0.777411 
0.620536 
0.92575 
0.286674 
0.853867 
0.386001 
0.95034 
0.139579 
0.556654 
0.773885 
0.645462 
0.90136 
0.365986 
0.946486 
0.145886 
0.571736 
0.769091 
0.659231 
0.885126 
0.415567 
0.981208 
0.0459931 
0.291474 
0.597269 
0.797734 
0.609225 
0.940967 
0.236305 
0.771577 
0.553828 
0.964556 
0.143589 
0.571276 
0.76863 
0.659972 
0.884152 
0.418456 
0.98268 
0.041804 
0.278164 
0.575285 
0.806964 
0.582796 
0.961475 
0.162444 
0.617512 
0.743788 
0.719015 
0.797544 
0.646151 
0.90775 
0.347783 
0.92945 
0.193578 
0.680203 
0.687326 
0.824055 
0.578072 
0.969247 
0.135256 
0.55103 
0.774665 
0.642257 
0.904843 
0.355025 
0.936403 
0.174309 
0.63836 
0.728589 
0.750729 
0.740161 
0.765206 
0.717127 
0.806887 
0.625517 
0.930286 
0.274338 
0.835636 
0.42701 
0.972998 
0.0773418 
0.387926 
0.718973 
0.690852 
0.83097 
0.563024 
0.978677 
0.0988878 
0.453534 
0.763753 
0.633867 
0.909728 
0.338341 
0.919277 
0.221494 
0.736075 
0.613337 
0.919261 
0.304043 
0.877658 
0.329284 
0.89873 
0.278624 
0.8331 
0.434327 
0.97599 
0.0694201 
0.364493 
0.695439 
0.718357 
0.78406 
0.673813 
0.872466 
0.454076 
0.996015 
0.00598057 
0.159439 
0.323517 
0.676 
0.7316 
0.757109 
0.729568 
0.784763 
0.675757 
0.870275 
0.46045 
0.997412 
0.00294404 
0.149033 
0.29667 
0.635928 
0.767646 
0.681242 
0.858219 
0.493346 
0.999776 
0.00441261 
0.154986 
0.312042 
0.659502 
0.747705 
0.724783 
0.789649 
0.664352 
0.885444 
0.416231 
0.981714 
0.0444555 
0.286593 
0.589354 
0.801429 
0.598984 
0.949544 
0.206027 
0.713196 
0.645126 
0.883498 
0.415789 
0.980857 
0.0472624 
0.29551 
0.603685 
0.794433 
0.618095 
0.932903 
0.264067 
0.819277 
0.462022 
0.982575 
0.0552355 
0.321778 
0.642502 
0.768731 
0.681146 
0.858667 
0.492175 
0.99983 
0.00386708 
0.153056 
0.307066 
0.652055 
0.754398 
0.710625 
0.813497 
0.608992 
0.945875 
0.220733 
0.742521 
0.602167 
0.92963 
0.269343 
0.827196 
0.445405 
0.979171 
0.0619175 
0.341989 
0.669169 
0.745471 
0.731591 
0.777964 
0.689951 
0.849882 
0.51696 
0.99679 
0.0221033 
0.216043 
0.455854 
0.79969 
0.562649 
0.969456 
0.12993 
0.536992 
0.777262 
0.632956 
0.914636 
0.323662 
0.902744 
0.265482 
0.812637 
0.477364 
0.984163 
0.0543658 
0.319468 
0.639235 
0.77128 
0.67528 
0.866823 
0.469362 
0.998762 
0.00082507 
0.141845 
0.277665 
0.604495 
0.788489 
0.630647 
0.920146 
0.306589 
0.881515 
0.319627 
0.887589 
0.306911 
0.8722 
0.344711 
0.915353 
0.23507 
0.761535 
0.572463 
0.953422 
0.185596 
0.669519 
0.698135 
0.806109 
0.621514 
0.933529 
0.263162 
0.817919 
0.464828 
0.982948 
0.0547929 
0.320472 
0.640676 
0.770162 
0.677861 
0.863265 
0.479379 
0.999697 
0.000502795 
0.140967 
0.275301 
0.600409 
0.790711 
0.624851 
0.92602 
0.28715 
0.854683 
0.384087 
0.948978 
0.143369 
0.566038 
0.771054 
0.653757 
0.89176 
0.395579 
0.969356 
0.0801446 
0.395335 
0.725684 
0.682499 
0.844013 
0.529209 
0.993204 
0.0384281 
0.270148 
0.561177 
0.811222 
0.569209 
0.969926 
0.130325 
0.538187 
0.777078 
0.633675 
0.913906 
0.326032 
0.905537 
0.258156 
0.800859 
0.500845 
0.982846 
0.0659488 
0.355746 
0.685493 
0.729136 
0.763981 
0.716119 
0.808066 
0.622637 
0.933152 
0.264662 
0.820366 
0.459725 
0.98222 
0.0557655 
0.323368 
0.644707 
0.766977 
0.685144 
0.852963 
0.507815 
0.998375 
0.0137348 
0.187491 
0.391899 
0.755214 
0.631103 
0.909743 
0.337467 
0.918254 
0.224285 
0.741351 
0.60524 
0.927048 
0.278145 
0.840826 
0.415666 
0.96798 
0.0907661 
0.426627 
0.74933 
0.652054 
0.887079 
0.408046 
0.976921 
0.0583742 
0.330095 
0.653947 
0.759266 
0.70232 
0.827101 
0.575519 
0.971523 
0.12686 
0.529393 
0.778023 
0.629176 
0.918351 
0.311509 
0.887785 
0.303935 
0.868062 
0.354717 
0.925043 
0.209069 
0.712268 
0.647438 
0.880835 
0.423726 
0.984749 
0.0362515 
0.260365 
0.543917 
0.814499 
0.556742 
0.976327 
0.105 
0.470353 
0.770446 
0.626221 
0.918731 
0.309488 
0.885123 
0.310652 
0.876643 
0.333991 
0.904178 
0.264463 
0.811335 
0.479945 
0.98421 
0.0549805 
0.321452 
0.642004 
0.769133 
0.680229 
0.859959 
0.488596 
0.999913 
0.00249872 
0.14819 
0.294401 
0.632316 
0.770375 
0.674945 
0.866964 
0.468892 
0.998693 
0.000929895 
0.1422 
0.278614 
0.606124 
0.787572 
0.633014 
0.917675 
0.314672 
0.891867 
0.293554 
0.854156 
0.387338 
0.951533 
0.136146 
0.548053 
0.77594 
0.638872 
0.908578 
0.343193 
0.924544 
0.207122 
0.708016 
0.653182 
0.873471 
0.445219 
0.992977 
0.0140287 
0.1869 
0.390652 
0.754046 
0.632841 
0.907779 
0.343707 
0.92489 
0.206232 
0.706235 
0.655528 
0.870381 
0.454101 
0.995398 
0.00816754 
0.167009 
0.342555 
0.701345 
0.703481 
0.808058 
0.618865 
0.936349 
0.253628 
0.802113 
0.496799 
0.983122 
0.0637848 
0.349051 
0.677657 
0.737188 
0.748317 
0.747012 
0.752645 
0.742268 
0.762176 
0.72343 
0.79614 
0.650438 
0.902846 
0.363223 
0.944208 
0.152286 
0.58724 
0.762439 
0.676432 
0.862737 
0.480313 
0.999689 
0.000812096 
0.142076 
0.278258 
0.605517 
0.787915 
0.632129 
0.918603 
0.311642 
0.888042 
0.303265 
0.867186 
0.356809 
0.926976 
0.203833 
0.701755 
0.661279 
0.862607 
0.476102 
0.998924 
0.0022716 
0.14708 
0.291515 
0.627656 
0.77377 
0.666987 
0.877596 
0.438333 
0.991231 
0.0180873 
0.200508 
0.421942 
0.779636 
0.593746 
0.946535 
0.214061 
0.729107 
0.622598 
0.909498 
0.335632 
0.916002 
0.230424 
0.752762 
0.587081 
0.942679 
0.224276 
0.74866 
0.592533 
0.938031 
0.240492 
0.778608 
0.541348 
0.970715 
0.119323 
0.508683 
0.778246 
0.622521 
0.924306 
0.291642 
0.861016 
0.369309 
0.937587 
0.174909 
0.640123 
0.727039 
0.753761 
0.73427 
0.776027 
0.694565 
0.843023 
0.53525 
0.991612 
0.04583 
0.294062 
0.601103 
0.79585 
0.614349 
0.936384 
0.252165 
0.799511 
0.501923 
0.982449 
0.0676389 
0.360898 
0.691311 
0.722927 
0.775675 
0.691852 
0.846627 
0.525596 
0.994638 
0.0322955 
0.250073 
0.524521 
0.815847 
0.547902 
0.979899 
0.0901776 
0.428467 
0.750139 
0.651174 
0.888263 
0.404515 
0.974848 
0.0643449 
0.348326 
0.677028 
0.737759 
0.747167 
0.749205 
0.748438 
0.750404 
0.746695 
0.753825 
0.740052 
0.766321 
0.71499 
0.810494 
0.616962 
0.938656 
0.245869 
0.788774 
0.522476 
0.977768 
0.0898214 
0.426776 
0.749128 
0.652458 
0.886585 
0.409527 
0.977764 
0.0559502 
0.322621 
0.643804 
0.767671 
0.683555 
0.855242 
0.501595 
0.999167 
0.00905423 
0.171275 
0.352997 
0.714179 
0.687729 
0.833714 
0.555603 
0.982531 
0.0834604 
0.409272 
0.736657 
0.668694 
0.864439 
0.473587 
0.998979 
0.00132003 
0.143686 
0.282555 
0.612827 
0.783609 
0.643065 
0.906715 
0.34986 
0.931422 
0.188156 
0.668701 
0.69988 
0.803406 
0.627893 
0.927125 
0.284705 
0.851225 
0.392036 
0.954443 
0.128166 
0.527773 
0.77872 
0.627312 
0.920241 
0.305306 
0.87974 
0.324053 
0.892775 
0.293833 
0.854845 
0.385683 
0.950368 
0.139393 
0.55618 
0.774014 
0.645071 
0.901799 
0.364611 
0.94527 
0.149339 
0.580141 
0.765694 
0.668201 
0.873737 
0.449019 
0.994558 
0.00960533 
0.171838 
0.354495 
0.715941 
0.685493 
0.837194 
0.546628 
0.986714 
0.0663218 
0.358071 
0.688026 
0.726488 
0.769018 
0.705795 
0.825006 
0.581419 
0.967675 
0.141507 
0.566849 
0.770122 
0.655789 
0.889261 
0.403137 
0.974177 
0.0662031 
0.35394 
0.683662 
0.730984 
0.760417 
0.723308 
0.795804 
0.651107 
0.902034 
0.36575 
0.946458 
0.145905 
0.571776 
0.769077 
0.659269 
0.885078 
0.415709 
0.981282 
0.0457826 
0.290808 
0.596199 
0.798258 
0.607794 
0.942213 
0.231957 
0.763601 
0.567677 
0.956365 
0.17462 
0.645079 
0.721973 
0.76331 
0.715227 
0.809229 
0.619818 
0.935902 
0.255304 
0.804954 
0.491174 
0.98364 
0.0603133 
0.338262 
0.66436 
0.750018 
0.722156 
0.794503 
0.65349 
0.899083 
0.374882 
0.954203 
0.123795 
0.515922 
0.779069 
0.623066 
0.924083 
0.292479 
0.86221 
0.366487 
0.93523 
0.18139 
0.654461 
0.714095 
0.778296 
0.684047 
0.85779 
0.495279 
0.999758 
0.00505718 
0.157277 
0.317915 
0.668067 
0.739562 
0.741427 
0.759693 
0.727777 
0.788441 
0.66773 
0.88112 
0.429041 
0.987724 
0.0275371 
0.231902 
0.489093 
0.811544 
0.546872 
0.978941 
0.0931422 
0.436897 
0.75523 
0.644574 
0.896672 
0.379039 
0.95721 
0.115277 
0.493479 
0.776902 
0.620611 
0.925534 
0.28735 
0.854845 
0.383736 
0.94873 
0.144058 
0.567732 
0.770477 
0.655374 
0.889823 
0.401455 
0.97314 
0.0691969 
0.362946 
0.693837 
0.720099 
0.780872 
0.680732 
0.86284 
0.481339 
0.999877 
0.000448926 
0.140828 
0.274924 
0.599754 
0.791057 
0.623939 
0.926921 
0.284139 
0.850282 
0.39422 
0.955867 
0.124202 
0.517524 
0.779025 
0.623632 
0.923578 
0.294172 
0.864592 
0.360836 
0.930335 
0.194786 
0.683133 
0.683924 
0.829402 
0.56463 
0.977499 
0.103384 
0.466097 
0.768922 
0.62786 
0.916809 
0.315698 
0.892983 
0.290746 
0.850265 
0.396244 
0.957414 
0.119777 
0.505936 
0.778481 
0.621233 
0.92548 
0.287702 
0.85537 
0.382517 
0.947847 
0.146512 
0.573742 
0.768267 
0.661404 
0.882419 
0.423613 
0.985161 
0.0347948 
0.255619 
0.535178 
0.815408 
0.552086 
0.978338 
0.0967644 
0.447282 
0.760793 
0.637501 
0.905368 
0.352085 
0.933429 
0.182642 
0.656792 
0.711911 
0.782291 
0.675437 
0.86993 
0.461262 
0.99755 
0.00270012 
0.148202 
0.294491 
0.632454 
0.770273 
0.675181 
0.866643 
0.469802 
0.998811 
0.000782693 
0.141707 
0.277297 
0.603861 
0.788841 
0.629735 
0.921086 
0.303499 
0.877433 
0.329726 
0.899209 
0.277395 
0.83127 
0.438281 
0.97731 
0.066124 
0.354633 
0.684373 
0.730267 
0.761802 
0.720525 
0.800597 
0.640115 
0.914754 
0.325461 
0.90507 
0.259333 
0.802772 
0.497095 
0.983331 
0.0631547 
0.347133 
0.675351 
0.73949 
0.743734 
0.755702 
0.735768 
0.774112 
0.698756 
0.836615 
0.551996 
0.984732 
0.0747919 
0.383664 
0.714652 
0.696211 
0.822335 
0.584692 
0.964981 
0.151443 
0.591356 
0.759621 
0.682888 
0.853692 
0.505304 
0.998671 
0.0119307 
0.181257 
0.377164 
0.740918 
0.651844 
0.88478 
0.414298 
0.980311 
0.048688 
0.299984 
0.610666 
0.790532 
0.628297 
0.922899 
0.297619 
0.869482 
0.349095 
0.919415 
0.224309 
0.741747 
0.60457 
0.927659 
0.276083 
0.837685 
0.422627 
0.971182 
0.0821381 
0.401895 
0.731152 
0.675612 
0.854373 
0.501408 
0.998905 
0.00992987 
0.174286 
0.360366 
0.722766 
0.676646 
0.850569 
0.511257 
0.997478 
0.0179514 
0.201911 
0.424925 
0.781741 
0.590443 
0.94929 
0.204276 
0.709394 
0.650292 
0.876977 
0.434988 
0.989473 
0.0232282 
0.217712 
0.459602 
0.801387 
0.560149 
0.971023 
0.123928 
0.52133 
0.778476 
0.625862 
0.921458 
0.30122 
0.874282 
0.337472 
0.907621 
0.255556 
0.796914 
0.508444 
0.981534 
0.0727371 
0.376399 
0.707675 
0.704467 
0.808531 
0.618123 
0.937109 
0.251042 
0.797713 
0.505403 
0.981875 
0.0706554 
0.370082 
0.701213 
0.711927 
0.795593 
0.648137 
0.905104 
0.356036 
0.937544 
0.171061 
0.631037 
0.734558 
0.73873 
0.762786 
0.721233 
0.799784 
0.642062 
0.912575 
0.332464 
0.913109 
0.238016 
0.766468 
0.5641 
0.958854 
0.16543 
0.623961 
0.739214 
0.728785 
0.780667 
0.683748 
0.858891 
0.492382 
0.999912 
0.00363631 
0.152257 
0.304995 
0.648906 
0.75712 
0.704741 
0.822968 
0.585797 
0.964514 
0.15332 
0.595919 
0.757199 
0.688699 
0.845329 
0.527843 
0.993856 
0.0357266 
0.261344 
0.545453 
0.814327 
0.557588 
0.975943 
0.106558 
0.474662 
0.771832 
0.624844 
0.920362 
0.304203 
0.878215 
0.327833 
0.897092 
0.282828 
0.839279 
0.420813 
0.970613 
0.0835021 
0.405821 
0.734329 
0.671547 
0.860312 
0.485087 
0.999631 
0.00245133 
0.147936 
0.293742 
0.631257 
0.771159 
0.673119 
0.869446 
0.461842 
0.997573 
0.00278974 
0.148529 
0.295349 
0.633826 
0.769245 
0.677562 
0.863366 
0.479028 
0.999669 
0.000496123 
0.140935 
0.275216 
0.600261 
0.790789 
0.624643 
0.926225 
0.286464 
0.853685 
0.386394 
0.950613 
0.138822 
0.554767 
0.77438 
0.643933 
0.903068 
0.360635 
0.941674 
0.159508 
0.604394 
0.753116 
0.698636 
0.830484 
0.566503 
0.976975 
0.105729 
0.472618 
0.771163 
0.625519 
0.919567 
0.306782 
0.881612 
0.319422 
0.887349 
0.307511 
0.872965 
0.34286 
0.913481 
0.240037 
0.770391 
0.557231 
0.962903 
0.150074 
0.587287 
0.761747 
0.677734 
0.860901 
0.485432 
0.999849 
0.00177551 
0.145581 
0.287543 
0.621156 
0.778264 
0.656229 
0.891219 
0.397828 
0.970894 
0.0756656 
0.382184 
0.713649 
0.697288 
0.820534 
0.589131 
0.96175 
0.163442 
0.620018 
0.741997 
0.722853 
0.790998 
0.660991 
0.889709 
0.403455 
0.974536 
0.0650825 
0.350544 
0.679677 
0.735085 
0.752445 
0.739047 
0.767615 
0.712236 
0.815049 
0.606007 
0.94859 
0.211186 
0.723759 
0.63032 
0.901027 
0.362393 
0.942834 
0.15638 
0.597029 
0.757369 
0.688723 
0.845347 
0.527806 
0.993868 
0.0356724 
0.261166 
0.54513 
0.814373 
0.557388 
0.976036 
0.106183 
0.473627 
0.771511 
0.625153 
0.919994 
0.305396 
0.879793 
0.323936 
0.892642 
0.294169 
0.855307 
0.384616 
0.949612 
0.141497 
0.561404 
0.772531 
0.649516 
0.896738 
0.380334 
0.958367 
0.111892 
0.484403 
0.775019 
0.621578 
0.924147 
0.29184 
0.861267 
0.368722 
0.937103 
0.176241 
0.643096 
0.724473 
0.758759 
0.72441 
0.793558 
0.656141 
0.895904 
0.384674 
0.96184 
0.10181 
0.456893 
0.765762 
0.631098 
0.912912 
0.328185 
0.90794 
0.251844 
0.790401 
0.52092 
0.978473 
0.086953 
0.418486 
0.743539 
0.659739 
0.876888 
0.438061 
0.990894 
0.019187 
0.204215 
0.430234 
0.785273 
0.584924 
0.953725 
0.188353 
0.675836 
0.691254 
0.817485 
0.594235 
0.957568 
0.17867 
0.654884 
0.712817 
0.780355 
0.679578 
0.864154 
0.477592 
0.999659 
0.000101098 
0.139512 
0.271407 
0.593589 
0.794168 
0.61562 
0.934854 
0.257295 
0.808146 
0.484816 
0.983947 
0.057347 
0.328934 
0.652202 
0.760801 
0.698962 
0.832332 
0.562247 
0.979422 
0.096113 
0.445714 
0.759971 
0.63855 
0.904102 
0.356048 
0.937255 
0.171964 
0.63309 
0.732921 
0.742059 
0.756618 
0.733602 
0.777993 
0.690498 
0.849154 
0.518935 
0.99635 
0.0242533 
0.223287 
0.471161 
0.806114 
0.553412 
0.975071 
0.108262 
0.479217 
0.77317 
0.623622 
0.92183 
0.299431 
0.871806 
0.343509 
0.913873 
0.239079 
0.768704 
0.560171 
0.96121 
0.156531 
0.602916 
0.753296 
0.69787 
0.831614 
0.563613 
0.978613 
0.0992845 
0.45466 
0.764261 
0.633253 
0.910457 
0.336028 
0.916761 
0.228292 
0.748822 
0.593452 
0.937483 
0.242476 
0.78215 
0.534891 
0.973434 
0.108236 
0.478654 
0.773068 
0.623651 
0.921775 
0.299606 
0.872044 
0.342932 
0.913287 
0.240632 
0.771448 
0.555376 
0.963938 
0.1461 
0.577519 
0.766159 
0.666535 
0.875845 
0.442893 
0.99272 
0.0142354 
0.187545 
0.39217 
0.755445 
0.630767 
0.910122 
0.336261 
0.916938 
0.227836 
0.747981 
0.594798 
0.936345 
0.246422 
0.789094 
0.521984 
0.977935 
0.0891073 
0.424715 
0.747784 
0.654208 
0.884288 
0.416355 
0.981444 
0.0454212 
0.289675 
0.594369 
0.799136 
0.605382 
0.944279 
0.22471 
0.750004 
0.590287 
0.939868 
0.234074 
0.76698 
0.561948 
0.959944 
0.161217 
0.614059 
0.746226 
0.713741 
0.806362 
0.625646 
0.930015 
0.27521 
0.836975 
0.424069 
0.971784 
0.0805484 
0.397283 
0.727284 
0.680515 
0.84704 
0.521174 
0.995431 
0.0281729 
0.236374 
0.497871 
0.813439 
0.545295 
0.980004 
0.0890375 
0.425129 
0.747992 
0.653966 
0.884614 
0.415389 
0.980944 
0.0468451 
0.294176 
0.601578 
0.795547 
0.615127 
0.935667 
0.254627 
0.803684 
0.493718 
0.983438 
0.061772 
0.34281 
0.670066 
0.744643 
0.7333 
0.774899 
0.69648 
0.840034 
0.543084 
0.988646 
0.058541 
0.334143 
0.658929 
0.75498 
0.711637 
0.812159 
0.612272 
0.942929 
0.231044 
0.762047 
0.570304 
0.954644 
0.180994 
0.659375 
0.708535 
0.788093 
0.66267 
0.886919 
0.411672 
0.979273 
0.0514486 
0.308613 
0.623727 
0.782372 
0.648821 
0.900422 
0.36967 
0.949752 
0.136565 
0.548615 
0.77588 
0.639158 
0.90828 
0.344147 
0.925538 
0.2044 
0.702533 
0.660336 
0.863911 
0.472449 
0.998582 
0.00239018 
0.147402 
0.292369 
0.62904 
0.772778 
0.669329 
0.874517 
0.447278 
0.994117 
0.0106357 
0.175337 
0.363041 
0.725774 
0.672666 
0.856384 
0.495437 
0.999344 
0.00657887 
0.162563 
0.331331 
0.686722 
0.720194 
0.77859 
0.685295 
0.856249 
0.499568 
0.999444 
0.0074589 
0.165714 
0.339226 
0.69711 
0.708456 
0.79953 
0.63877 
0.915755 
0.322096 
0.901069 
0.269808 
0.819402 
0.463461 
0.98302 
0.0541363 
0.318388 
0.637749 
0.772406 
0.672661 
0.87038 
0.459244 
0.997077 
0.00376938 
0.151881 
0.304094 
0.647517 
0.758301 
0.702163 
0.827036 
0.575623 
0.971449 
0.12714 
0.530124 
0.777963 
0.629513 
0.918026 
0.312577 
0.889143 
0.300501 
0.863549 
0.365435 
0.934605 
0.183011 
0.657989 
0.710692 
0.784474 
0.670678 
0.876405 
0.442637 
0.992779 
0.013952 
0.186572 
0.389889 
0.753335 
0.633891 
0.90658 
0.3475 
0.928785 
0.195527 
0.684297 
0.682634 
0.831423 
0.559494 
0.980304 
0.0922707 
0.43475 
0.753947 
0.646248 
0.89457 
0.385461 
0.9621 
0.101188 
0.455188 
0.765011 
0.632002 
0.91185 
0.331575 
0.911806 
0.241574 
0.772765 
0.553112 
0.965175 
0.141324 
0.565625 
0.770628 
0.654452 
0.890876 
0.398249 
0.971105 
0.075082 
0.380463 
0.711984 
0.699283 
0.817234 
0.597211 
0.955501 
0.186287 
0.671709 
0.695702 
0.810157 
0.611917 
0.942607 
0.231953 
0.763712 
0.567468 
0.956496 
0.174131 
0.643972 
0.722954 
0.76143 
0.719023 
0.802825 
0.634888 
0.920484 
0.30685 
0.881982 
0.318436 
0.886166 
0.310474 
0.876712 
0.333755 
0.903913 
0.265154 
0.81243 
0.477725 
0.984165 
0.0544675 
0.319794 
0.639694 
0.770928 
0.676095 
0.865705 
0.47252 
0.999135 
0.000444111 
0.140588 
0.274302 
0.598667 
0.791624 
0.622438 
0.928391 
0.279212 
0.842939 
0.410848 
0.965542 
0.0974286 
0.445371 
0.760227 
0.637976 
0.904738 
0.354045 
0.935335 
0.177333 
0.645109 
0.722756 
0.762084 
0.717747 
0.804995 
0.629817 
0.925858 
0.28913 
0.857671 
0.377108 
0.943793 
0.157765 
0.600742 
0.755216 
0.693752 
0.837897 
0.54742 
0.986671 
0.0667084 
0.359265 
0.689369 
0.725052 
0.771718 
0.700181 
0.833885 
0.558932 
0.981271 
0.0887861 
0.424765 
0.747715 
0.654344 
0.88412 
0.416855 
0.9817 
0.0446917 
0.287363 
0.590612 
0.80087 
0.600558 
0.948277 
0.21055 
0.722338 
0.632375 
0.898701 
0.369633 
0.949201 
0.138318 
0.55303 
0.774871 
0.642455 
0.904707 
0.355478 
0.936839 
0.17309 
0.635624 
0.730862 
0.746205 
0.74882 
0.74883 
0.749596 
0.748245 
0.750861 
0.745824 
0.755484 
0.736792 
0.77233 
0.70252 
0.830734 
0.567081 
0.976783 
0.106554 
0.474902 
0.771878 
0.624827 
0.92039 
0.304112 
0.878095 
0.328129 
0.897426 
0.281974 
0.838034 
0.423557 
0.971814 
0.0802944 
0.396525 
0.726635 
0.68133 
0.845802 
0.52447 
0.994574 
0.0321837 
0.249677 
0.523772 
0.815846 
0.547681 
0.979971 
0.089866 
0.427569 
0.749568 
0.651917 
0.887297 
0.407404 
0.976552 
0.0594369 
0.333358 
0.658251 
0.755503 
0.710485 
0.814037 
0.607744 
0.946985 
0.216828 
0.734925 
0.613856 
0.918501 
0.306464 
0.880847 
0.321403 
0.889701 
0.301601 
0.865303 
0.361218 
0.930934 
0.193062 
0.679505 
0.688058 
0.822875 
0.581006 
0.967269 
0.142735 
0.569895 
0.769049 
0.658757 
0.885645 
0.414 
0.980382 
0.0483534 
0.298918 
0.609017 
0.791482 
0.625838 
0.925381 
0.289382 
0.857912 
0.376569 
0.943381 
0.158905 
0.603425 
0.75364 
0.697403 
0.83237 
0.561688 
0.979672 
0.0950901 
0.44281 
0.758458 
0.640463 
0.901768 
0.363319 
0.94398 
0.153035 
0.589048 
0.761552 
0.678624 
0.85972 
0.488725 
0.999854 
0.00274742 
0.149062 
0.296685 
0.635959 
0.76762 
0.681299 
0.858138 
0.493569 
0.999766 
0.0045157 
0.15535 
0.312979 
0.660885 
0.746423 
0.727446 
0.784996 
0.674648 
0.871718 
0.456308 
0.996543 
0.00478161 
0.155331 
0.313011 
0.660923 
0.74639 
0.727515 
0.784874 
0.674915 
0.871352 
0.457355 
0.996774 
0.00427781 
0.153604 
0.308559 
0.6543 
0.752421 
0.714855 
0.806529 
0.625616 
0.930092 
0.274965 
0.836599 
0.424896 
0.972132 
0.079626 
0.394599 
0.724963 
0.68343 
0.842593 
0.532958 
0.992005 
0.0437637 
0.28741 
0.590406 
0.801014 
0.600188 
0.94858 
0.209471 
0.720171 
0.635451 
0.895152 
0.380585 
0.958111 
0.112805 
0.486874 
0.775587 
0.621208 
0.924633 
0.29026 
0.859023 
0.373999 
0.941377 
0.164449 
0.616348 
0.745346 
0.715963 
0.802715 
0.634207 
0.921096 
0.304813 
0.879299 
0.325094 
0.893968 
0.290805 
0.85065 
0.395302 
0.956811 
0.121458 
0.510352 
0.778801 
0.621925 
0.924984 
0.289412 
0.857839 
0.376765 
0.943535 
0.158476 
0.602416 
0.754239 
0.696021 
0.834474 
0.556285 
0.982497 
0.0837818 
0.410225 
0.737385 
0.667755 
0.865773 
0.469841 
0.998559 
0.00168963 
0.144886 
0.285741 
0.618164 
0.780238 
0.651415 
0.897035 
0.380065 
0.958221 
0.112289 
0.485467 
0.77527 
0.621406 
0.924368 
0.291119 
0.860244 
0.371131 
0.939079 
0.170796 
0.630868 
0.734634 
0.738553 
0.763108 
0.720578 
0.800907 
0.639469 
0.915483 
0.323113 
0.902295 
0.266605 
0.814401 
0.473767 
0.984005 
0.0538345 
0.317715 
0.63677 
0.77315 
0.670925 
0.87271 
0.452562 
0.995557 
0.00714367 
0.16343 
0.333609 
0.689752 
0.716842 
0.78469 
0.672086 
0.874765 
0.447444 
0.994257 
0.0101933 
0.173821 
0.35935 
0.72159 
0.678193 
0.848276 
0.517421 
0.996259 
0.0241206 
0.222806 
0.470158 
0.805742 
0.553919 
0.974773 
0.109423 
0.482399 
0.774007 
0.622949 
0.922665 
0.29672 
0.868092 
0.352475 
0.922665 
0.215578 
0.725069 
0.629554 
0.90212 
0.35904 
0.939762 
0.165032 
0.617271 
0.744763 
0.717253 
0.80056 
0.639212 
0.915631 
0.322596 
0.901675 
0.268224 
0.816938 
0.46856 
0.983605 
0.0536498 
0.317002 
0.635771 
0.773895 
0.669178 
0.875033 
0.445858 
0.993705 
0.0116602 
0.178817 
0.371452 
0.734952 
0.660199 
0.873792 
0.446469 
0.993579 
0.0122882 
0.180984 
0.376644 
0.74037 
0.652625 
0.883777 
0.417276 
0.981854 
0.0442889 
0.286089 
0.588524 
0.801793 
0.597955 
0.950361 
0.203097 
0.707194 
0.653183 
0.873223 
0.445877 
0.993171 
0.0135473 
0.185274 
0.386826 
0.750447 
0.638135 
0.901649 
0.362961 
0.943588 
0.154168 
0.591758 
0.760182 
0.681975 
0.855038 
0.501637 
0.999106 
0.00928405 
0.172068 
0.354944 
0.716485 
0.684795 
0.838271 
0.543832 
0.987897 
0.061374 
0.342891 
0.670039 
0.744699 
0.733194 
0.775091 
0.696074 
0.840656 
0.541458 
0.989298 
0.0557803 
0.325538 
0.647475 
0.764777 
0.690127 
0.845688 
0.527388 
0.994046 
0.0349198 
0.258703 
0.540629 
0.814942 
0.554764 
0.977217 
0.101383 
0.460281 
0.766694 
0.630353 
0.913877 
0.325121 
0.904375 
0.261233 
0.805856 
0.490994 
0.983896 
0.0593759 
0.335368 
0.66065 
0.753406 
0.714991 
0.806618 
0.625464 
0.930252 
0.274426 
0.83577 
0.426716 
0.97288 
0.0776525 
0.388836 
0.719808 
0.689826 
0.832602 
0.558866 
0.980913 
0.0899937 
0.428229 
0.749957 
0.651425 
0.887941 
0.405479 
0.975423 
0.0626867 
0.343288 
0.670886 
0.743799 
0.735008 
0.77181 
0.70299 
0.829904 
0.569173 
0.975548 
0.111374 
0.488108 
0.775289 
0.622162 
0.923727 
