0.406932 
0.403271 
0.396676 
0.388028 
0.378079 
0.367453 
0.35666 
0.3461 
0.336073 
0.326796 
0.318412 
0.311006 
0.304615 
0.299237 
0.29484 
0.291368 
0.288749 
0.286903 
0.285742 
0.28518 
0.285129 
0.285502 
0.28622 
0.287206 
0.28839 
0.289711 
0.291119 
0.292568 
0.294018 
0.295435 
0.296794 
0.298082 
0.29929 
0.300416 
0.301465 
0.302443 
0.30336 
0.304233 
0.305075 
0.305899 
0.306715 
0.307524 
0.308321 
0.309097 
0.309842 
0.310551 
0.311223 
0.311863 
0.312483 
0.313093 
0.313713 
0.314362 
0.315053 
0.315793 
0.316579 
0.3174 
0.318242 
0.319086 
0.319915 
0.320714 
0.321474 
0.322194 
0.32288 
0.323543 
0.324193 
0.324838 
0.325487 
0.326142 
0.326803 
0.327477 
0.328182 
0.328948 
0.32983 
0.330909 
0.332291 
0.334108 
0.336511 
0.339663 
0.34373 
0.34887 
0.355221 
0.362897 
0.371972 
0.382475 
0.394383 
0.407628 
0.422097 
0.437637 
0.454056 
0.471131 
0.48862 
0.506272 
0.523835 
0.541062 
0.55772 
0.573593 
0.588486 
0.60223 
0.614689 
0.625755 
0.635356 
0.643454 
0.650035 
0.655116 
0.658742 
0.660984 
0.661926 
0.661667 
0.660317 
0.657994 
0.65482 
0.650924 
0.646437 
0.641491 
0.636216 
0.630743 
0.625202 
0.619712 
0.614387 
0.609335 
0.604654 
0.600432 
0.596745 
0.59366 
0.591227 
0.589477 
0.588422 
0.588054 
0.588352 
0.589278 
0.590777 
0.592773 
0.595181 
0.597907 
0.600848 
0.603895 
0.606935 
0.609848 
0.612523 
0.614852 
0.616739 
0.618104 
0.61888 
0.619022 
0.618505 
0.617324 
0.615495 
0.61305 
0.610038 
0.60651 
0.602529 
0.598156 
0.593457 
0.588493 
0.583329 
0.578026 
0.572641 
0.567233 
0.561858 
0.556568 
0.551411 
0.546432 
0.54167 
0.537154 
0.532909 
0.528951 
0.525283 
0.521895 
0.518774 
0.515894 
0.513222 
0.510726 
0.508372 
0.506132 
0.503971 
0.501856 
0.499754 
0.497637 
0.495477 
0.493247 
0.490925 
0.488494 
0.485943 
0.483268 
0.480466 
0.47754 
0.474499 
0.471351 
0.468106 
0.464775 
0.461366 
0.457887 
0.45435 
0.450763 
0.447136 
0.443479 
0.4398 
0.436107 
0.432408 
0.428707 
0.425009 
0.421313 
0.417624 
0.413945 
0.410281 
0.406641 
0.403035 
0.399479 
0.395985 
0.392568 
0.389239 
0.38601 
0.382884 
0.379868 
0.376962 
0.374169 
0.371488 
0.368913 
0.366441 
0.364069 
0.361793 
0.359607 
0.357501 
0.355468 
0.353506 
0.351613 
0.349791 
0.348043 
0.34637 
0.344771 
0.343246 
0.341788 
0.34039 
0.339047 
0.33775 
0.33649 
0.335263 
0.334066 
0.332898 
0.331751 
0.330618 
0.329494 
0.328373 
0.327249 
0.326114 
0.324964 
0.323799 
0.322621 
0.321438 
0.320256 
0.319088 
0.317947 
0.316842 
0.315778 
0.314756 
0.313777 
0.312839 
0.311934 
0.311054 
0.310189 
0.309329 
0.308467 
0.307597 
0.306717 
0.305828 
0.304938 
0.304055 
0.303187 
0.302342 
0.301523 
0.300735 
0.299979 
0.299253 
0.298557 
0.297888 
0.297246 
0.296632 
0.296045 
0.295491 
0.294972 
0.294492 
0.294055 
0.293666 
0.293322 
0.293018 
0.292745 
0.292491 
0.292243 
0.291992 
0.291728 
0.291448 
0.291153 
0.290844 
0.290528 
0.29022 
0.289933 
0.289677 
0.289459 
0.289286 
0.289165 
0.289092 
0.289066 
0.289085 
0.289147 
0.289245 
0.289376 
0.28954 
0.289733 
0.289951 
0.290188 
0.290441 
0.29071 
0.290997 
0.291302 
0.29163 
0.291983 
0.292366 
0.292776 
0.293209 
0.293658 
0.294114 
0.294565 
0.294998 
0.295405 
0.295784 
0.296136 
0.296463 
0.296775 
0.297083 
0.297399 
0.297734 
0.298094 
0.29848 
0.298894 
0.299331 
0.299783 
0.300243 
0.300701 
0.301149 
0.301584 
0.302006 
0.302416 
0.302821 
0.303231 
0.303658 
0.304107 
0.304588 
0.305107 
0.305664 
0.306256 
0.306884 
0.307545 
0.308232 
0.308941 
0.309667 
0.310405 
0.311152 
0.311906 
0.312666 
0.313435 
0.314214 
0.315004 
0.315804 
0.316615 
0.317432 
0.318246 
0.319051 
0.319841 
0.320607 
0.321347 
0.322059 
0.322752 
0.323438 
0.324131 
0.324841 
0.325574 
0.326337 
0.327134 
0.327963 
0.328817 
0.329693 
0.330585 
0.331489 
0.332401 
0.333318 
0.334239 
0.335164 
0.336087 
0.337004 
0.337912 
0.338804 
0.339676 
0.340526 
0.341353 
0.342153 
0.342925 
0.343668 
0.344385 
0.345082 
0.345764 
0.346434 
0.347093 
0.347742 
0.348381 
0.349015 
0.349647 
0.350277 
0.350904 
0.351527 
0.352147 
0.352764 
0.353374 
0.353977 
0.354564 
0.355127 
0.355657 
0.356149 
0.356599 
0.357001 
0.357356 
0.357671 
0.357957 
0.358228 
0.3585 
0.358788 
0.359105 
0.359462 
0.359866 
0.360321 
0.360827 
0.361378 
0.361971 
0.362612 
0.363322 
0.364148 
0.365161 
0.36646 
0.368167 
0.370428 
0.373408 
0.377275 
0.382191 
0.388295 
0.395695 
0.404457 
0.414604 
0.426106 
0.438883 
0.452808 
0.467725 
0.483446 
0.499762 
0.516451 
0.533288 
0.550047 
0.566505 
0.582451 
0.597682 
0.612019 
0.6253 
0.637389 
0.648172 
0.657572 
0.66554 
0.672053 
0.677117 
0.680768 
0.683066 
0.684089 
0.683928 
0.682686 
0.680474 
0.677404 
0.67359 
0.669155 
0.664217 
0.658896 
0.653305 
0.647558 
0.641766 
0.636038 
0.630478 
0.625188 
0.620259 
0.615777 
0.611817 
0.608439 
0.605689 
0.603594 
0.602163 
0.601379 
0.60121 
0.601608 
0.602505 
0.603816 
0.605445 
0.607285 
0.609227 
0.611155 
0.612962 
0.614547 
0.61582 
0.616703 
0.617135 
0.617076 
0.616499 
0.615398 
0.613785 
0.611686 
0.609138 
0.606186 
0.602882 
0.599284 
0.595449 
0.591434 
0.587301 
0.583103 
0.578892 
0.574713 
0.570605 
0.566603 
0.562734 
0.559022 
0.555485 
0.552132 
0.54897 
0.545998 
0.54321 
0.54059 
0.538115 
0.535762 
0.533505 
0.531314 
0.529161 
0.527015 
0.52485 
0.522647 
0.52039 
0.518066 
0.515663 
0.513172 
0.510586 
0.507903 
0.505119 
0.502228 
0.499228 
0.496112 
0.492878 
0.489524 
0.486056 
0.482483 
0.47882 
0.475082 
0.47129 
0.46746 
0.463607 
0.459744 
0.45588 
0.452022 
0.448173 
0.444339 
0.440533 
0.436766 
0.43305 
0.429399 
0.425828 
0.422352 
0.418981 
0.415718 
0.412558 
0.409495 
0.406521 
0.403628 
0.400807 
0.398053 
0.395359 
0.392726 
0.39016 
0.387665 
0.385248 
0.38291 
0.380659 
0.378499 
0.376434 
0.374463 
0.372581 
0.370779 
0.369046 
0.36737 
0.365735 
0.364129 
0.362542 
0.360973 
0.359418 
0.35788 
0.356361 
0.354866 
0.353398 
0.351958 
0.350547 
0.349161 
0.347793 
0.346443 
0.345111 
0.343799 
0.342505 
0.341234 
0.339994 
0.338787 
0.337609 
0.336458 
0.335328 
0.33421 
0.333095 
0.331972 
0.330838 
0.329688 
0.328525 
0.327354 
0.326179 
0.325008 
0.323845 
0.322692 
0.321547 
0.320409 
0.319275 
0.318145 
0.317014 
0.315884 
0.314762 
0.313656 
0.312573 
0.311518 
0.310497 
0.309514 
0.308574 
0.307678 
0.306824 
0.306011 
0.305232 
0.304476 
0.303734 
0.302998 
0.302267 
0.301541 
0.300823 
0.300118 
0.299432 
0.298781 
0.298179 
0.297637 
0.297163 
0.296765 
0.296448 
0.29621 
0.296043 
0.295937 
0.295877 
0.295853 
0.295854 
0.295868 
0.295888 
0.295909 
0.295932 
0.295956 
0.295988 
0.296037 
0.29611 
0.296213 
0.296352 
0.296526 
0.296728 
0.296948 
0.297175 
0.297395 
0.297593 
0.297758 
0.297885 
0.297973 
0.298028 
0.298056 
0.298065 
0.298064 
0.298063 
0.29807 
0.298092 
0.298133 
0.298192 
0.298268 
0.298358 
0.298454 
0.298551 
0.298651 
0.298755 
0.298871 
0.299007 
0.299168 
0.299361 
0.299592 
0.299863 
0.300172 
0.300517 
0.300893 
0.301293 
0.301714 
0.302158 
0.302626 
0.303122 
0.30365 
0.304224 
0.30487 
0.305626 
0.306543 
0.307695 
0.30918 
0.31112 
0.313655 
0.316931 
0.321089 
0.326255 
0.332536 
0.34001 
0.348711 
0.358638 
0.369751 
0.381971 
0.395185 
0.409249 
0.423993 
0.439226 
0.454744 
0.470332 
0.485774 
0.500857 
0.515372 
0.529125 
0.541944 
0.553684 
0.564231 
0.573501 
0.581443 
0.588045 
0.59332 
0.597308 
0.600075 
0.601705 
0.602294 
0.601947 
0.600771 
0.598874 
0.596362 
0.593348 
0.589941 
0.586251 
0.58239 
0.578477 
0.574629 
0.570962 
0.567588 
0.564613 
0.56213 
0.560211 
0.558905 
0.558242 
0.558228 
0.558841 
0.560037 
0.561749 
0.563887 
0.566349 
0.569027 
0.571809 
0.574578 
0.577225 
0.579648 
0.581754 
0.583462 
0.584703 
0.585422 
0.585576 
0.585138 
0.584101 
0.582473 
0.580277 
0.577551 
0.574341 
0.570701 
0.566692 
0.56238 
0.557838 
0.553136 
0.548344 
0.543532 
0.538765 
0.5341 
0.52959 
0.52528 
0.521204 
0.51739 
0.513861 
0.510627 
0.507686 
0.505028 
0.502635 
0.500477 
0.49852 
0.496721 
0.495036 
0.493419 
0.491829 
0.490229 
0.488593 
0.486901 
0.485135 
0.483281 
0.481331 
0.47927 
0.477086 
0.474768 
0.472301 
0.469677 
0.466893 
0.46395 
0.460855 
0.457623 
0.45427 
0.450816 
0.447284 
0.443689 
0.440049 
0.436383 
0.432706 
0.429038 
0.425396 
0.421797 
0.418259 
0.414797 
0.411424 
0.408148 
0.404979 
0.401921 
0.398975 
0.396135 
0.393391 
0.390732 
0.388147 
0.385625 
0.383157 
0.38074 
0.378368 
0.376035 
0.373739 
0.371482 
0.369269 
0.367104 
0.36499 
0.362936 
0.36095 
0.359036 
0.357197 
0.355433 
0.353746 
0.352138 
0.350607 
0.349149 
0.347762 
0.346442 
0.345179 
0.343961 
0.342774 
0.341607 
0.340447 
0.33928 
0.338095 
0.336885 
0.335652 
0.334401 
0.333142 
0.331884 
0.330642 
0.329425 
0.328245 
0.327111 
0.326028 
0.325 
0.324029 
0.323116 
0.322258 
0.321444 
0.320664 
0.319905 
0.319159 
0.318417 
0.317671 
0.316919 
0.316161 
0.3154 
0.314641 
0.313891 
0.313156 
0.312441 
0.311748 
0.311076 
0.310424 
0.309794 
0.309184 
0.308598 
0.308039 
0.307509 
0.307004 
0.306518 
0.306048 
0.305588 
0.305133 
0.30468 
0.304224 
0.30376 
0.303287 
0.302803 
0.302312 
0.30182 
0.301333 
0.300862 
0.300412 
0.29999 
0.299598 
0.299242 
0.298919 
0.298627 
0.29836 
0.298112 
0.297872 
0.297635 
0.297395 
0.297145 
0.296885 
0.296615 
0.29634 
0.296065 
0.295797 
0.295542 
0.295308 
0.295101 
0.294929 
0.294794 
0.294698 
0.294637 
0.294608 
0.294608 
0.29463 
0.294678 
0.294754 
0.294861 
0.295005 
0.295188 
0.295415 
0.295689 
0.296013 
0.296383 
0.296793 
0.297234 
0.297697 
0.29818 
0.298681 
0.299198 
0.299738 
0.300318 
0.300965 
0.301721 
0.302644 
0.303809 
0.305309 
0.307256 
0.309773 
0.312989 
0.317035 
0.322027 
0.328065 
0.335217 
0.34352 
0.352969 
0.363522 
0.375101 
0.387592 
0.400849 
0.414701 
0.42896 
0.443422 
0.457879 
0.472124 
0.48596 
0.4992 
0.511672 
0.523224 
0.533729 
0.543087 
0.551225 
0.558104 
0.563722 
0.568104 
0.571299 
0.57338 
0.574439 
0.574583 
0.573923 
0.572574 
0.570648 
0.568263 
0.565527 
0.562549 
0.559439 
0.556306 
0.553256 
0.550386 
0.547787 
0.545535 
0.543702 
0.542341 
0.541491 
0.541172 
0.541385 
0.54211 
0.543307 
0.544916 
0.546864 
0.549059 
0.551398 
0.553768 
0.556057 
0.558155 
0.559962 
0.561388 
0.562358 
0.562815 
0.562725 
0.562073 
0.560862 
0.55911 
0.556847 
0.554115 
0.550967 
0.547462 
0.543665 
0.539644 
0.535467 
0.5312 
0.526909 
0.522655 
0.518496 
0.514486 
0.510666 
0.507069 
0.503721 
0.500637 
0.497822 
0.495275 
0.492983 
0.490927 
0.489083 
0.487426 
0.485924 
0.484544 
0.483249 
0.482003 
0.480769 
0.47951 
0.478193 
0.476795 
0.475293 
0.473669 
0.471909 
0.470005 
0.467951 
0.465742 
0.463374 
0.460848 
0.458167 
0.455339 
0.452378 
0.449298 
0.446119 
0.442864 
0.439548 
0.436191 
0.432806 
0.429405 
0.426 
0.422602 
0.419219 
0.415863 
0.412541 
0.409269 
0.406059 
0.402926 
0.399875 
0.39691 
0.394031 
0.391236 
0.388523 
0.38589 
0.383334 
0.38085 
0.378439 
0.376109 
0.373864 
0.371711 
0.369655 
0.367702 
0.365852 
0.364098 
0.362427 
0.360827 
0.359283 
0.357782 
0.356313 
0.354869 
0.353444 
0.35204 
0.350656 
0.349293 
0.347951 
0.346631 
0.345326 
0.344028 
0.342729 
0.341419 
0.340094 
0.338751 
0.337391 
0.336018 
0.334638 
0.33326 
0.331891 
0.330542 
0.329223 
0.327946 
0.326721 
0.325552 
0.324442 
0.323388 
0.32239 
0.321445 
0.320545 
0.319684 
0.318858 
0.31806 
0.317285 
0.316528 
0.315781 
0.315041 
0.314304 
0.313568 
0.312829 
0.312087 
0.311345 
0.310605 
0.309866 
0.309132 
0.308409 
0.3077 
0.307013 
0.306354 
0.305727 
0.305131 
0.304568 
0.304038 
0.303546 
0.303091 
0.30267 
0.302281 
0.301919 
0.301577 
0.301243 
0.300908 
0.300565 
0.30021 
0.299843 
0.299471 
0.299103 
0.298753 
0.298432 
0.298149 
0.297902 
0.297691 
0.297509 
0.297349 
0.297201 
0.297057 
0.296909 
0.296751 
0.296579 
0.296393 
0.296196 
0.295994 
0.295796 
0.295614 
0.295458 
0.295342 
0.295279 
0.295274 
0.295327 
0.295439 
0.295603 
0.29581 
0.296044 
0.296294 
0.296552 
0.29681 
0.297064 
0.297315 
0.297573 
0.297846 
0.298143 
0.298474 
0.298842 
0.299246 
0.299684 
0.300147 
0.300626 
0.301115 
0.301605 
0.302086 
0.302552 
0.303 
0.303429 
0.303841 
0.30424 
0.304627 
0.305002 
0.305368 
0.305727 
0.30608 
0.306433 
0.306794 
0.307172 
0.307573 
0.308003 
0.30847 
0.308975 
0.309514 
0.31008 
0.310667 
0.311261 
0.311856 
0.312446 
0.31303 
0.313604 
0.314169 
0.314726 
0.315281 
0.315835 
0.316394 
0.316956 
0.317519 
0.31808 
0.318632 
0.319169 
0.319688 
0.320187 
0.320664 
0.321121 
0.321558 
0.321978 
0.322385 
0.322785 
0.323183 
0.323591 
0.324019 
0.324481 
0.324988 
0.325549 
0.32617 
0.326849 
0.327577 
0.328339 
0.329119 
0.329897 
0.330654 
0.331372 
0.332037 
0.332637 
0.333169 
0.333636 
0.334049 
0.334424 
0.334781 
0.335142 
0.335521 
0.335935 
0.33639 
0.336891 
0.337436 
0.338023 
0.338643 
0.339287 
0.339945 
0.340611 
0.341279 
0.341943 
0.342594 
0.343231 
0.343854 
0.344463 
0.345063 
0.34566 
0.346263 
0.346879 
0.347512 
0.34817 
0.348854 
0.349563 
0.350292 
0.351031 
0.35177 
0.352492 
0.353182 
0.353828 
0.354428 
0.354974 
0.355471 
0.355926 
0.356344 
0.356733 
0.357098 
0.357446 
0.357779 
0.358106 
0.358439 
0.358797 
0.359217 
0.359755 
0.360486 
0.361511 
0.362949 
0.36494 
0.367636 
0.371197 
0.375771 
0.381491 
0.388473 
0.396796 
0.406503 
0.41759 
0.430005 
0.443644 
0.458357 
0.473958 
0.490233 
0.506941 
0.52383 
0.54065 
0.557157 
0.573124 
0.588342 
0.602627 
0.615819 
0.627784 
0.638421 
0.647656 
0.655439 
0.661753 
0.666609 
0.670048 
0.672138 
0.672965 
0.672632 
0.671256 
0.668961 
0.665876 
0.66213 
0.657851 
0.65316 
0.648174 
0.643004 
0.637755 
0.632533 
0.627444 
0.622588 
0.618056 
0.613935 
0.610302 
0.607221 
0.604735 
0.60287 
0.601624 
0.600979 
0.600894 
0.601313 
0.602169 
0.603381 
0.604856 
0.606496 
0.608203 
0.609879 
0.61143 
0.612767 
0.613816 
0.614517 
0.61483 
0.614722 
0.61418 
0.613204 
0.611808 
0.610016 
0.607859 
0.605373 
0.602596 
0.59957 
0.596336 
0.592937 
0.589415 
0.585816 
0.582185 
0.578564 
0.574991 
0.571497 
0.56811 
0.56485 
0.561724 
0.558734 
0.555876 
0.553135 
0.550499 
0.547951 
0.545472 
0.543041 
0.540631 
0.538218 
0.535778 
0.533287 
0.530727 
0.528085 
0.525354 
0.522531 
0.519616 
0.516614 
0.513534 
0.510387 
0.507181 
0.503926 
0.500632 
0.497306 
0.493949 
0.49056 
0.487133 
0.483663 
0.480149 
0.47659 
0.472987 
0.46934 
0.465661 
0.461963 
0.458263 
0.454576 
0.450916 
0.447301 
0.443744 
0.440257 
0.436842 
0.433501 
0.430231 
0.427031 
0.423902 
0.420844 
0.417856 
0.414938 
0.412089 
0.409311 
0.406603 
0.40396 
0.401378 
0.398852 
0.396381 
0.393962 
0.391598 
0.389286 
0.387025 
0.384815 
0.382657 
0.38055 
0.378494 
0.376489 
0.374539 
0.372645 
0.370808 
0.369027 
0.367301 
0.365629 
0.364009 
0.362439 
0.360915 
0.35943 
0.357982 
0.35657 
0.355196 
0.353857 
0.352555 
0.351288 
0.350054 
0.348845 
0.347655 
0.346478 
0.345308 
0.34414 
0.34297 
0.341794 
0.340611 
0.339423 
0.338233 
0.337044 
0.335861 
0.334686 
0.333522 
0.33237 
0.331235 
0.330117 
0.329017 
0.327934 
0.32687 
0.325822 
0.324785 
0.323754 
0.322723 
0.321687 
0.320642 
0.319586 
0.318519 
0.317442 
0.31636 
0.315281 
0.314219 
0.31318 
0.312172 
0.3112 
0.310271 
0.309388 
0.308548 
0.307745 
0.306974 
0.306227 
0.305498 
0.304782 
0.304075 
0.303375 
0.302682 
0.301998 
0.301331 
0.300687 
0.300075 
0.299497 
0.298959 
0.298463 
0.298016 
0.297617 
0.297265 
0.296956 
0.296685 
0.296446 
0.296232 
0.296041 
0.295869 
0.29572 
0.295594 
0.295491 
0.295414 
0.29537 
0.295365 
0.295401 
0.295476 
0.295589 
0.295733 
0.295895 
0.296063 
0.296229 
0.296385 
0.296532 
0.296669 
0.296801 
0.296929 
0.297056 
0.297184 
0.297314 
0.297445 
0.297575 
0.297702 
0.297821 
0.297926 
0.298016 
0.298096 
0.298172 
0.298253 
0.298352 
0.298485 
0.298659 
0.298877 
0.299142 
0.29945 
0.299793 
0.300156 
0.300531 
0.300908 
0.301286 
0.301663 
0.302041 
0.30242 
0.3028 
0.303183 
0.303568 
0.303949 
0.30432 
0.304676 
0.305011 
0.305325 
0.305628 
0.305929 
0.306237 
0.306559 
0.306907 
0.307289 
0.307705 
0.308152 
0.308625 
0.309116 
0.309611 
0.310101 
0.31058 
0.311047 
0.311508 
0.311972 
0.312442 
0.312925 
0.313422 
0.313936 
0.314469 
0.315018 
0.315577 
0.316139 
0.316696 
0.317241 
0.317771 
0.318285 
0.318786 
0.319277 
0.319766 
0.320263 
0.320772 
0.3213 
0.32185 
0.322423 
0.32302 
0.323641 
0.324283 
0.32494 
0.325611 
0.326294 
0.326993 
0.327711 
0.328447 
0.329197 
0.32996 
0.330734 
0.331521 
0.33232 
0.333126 
0.333938 
0.334758 
0.335581 
0.3364 
0.337212 
0.338013 
0.338797 
0.33956 
0.340304 
0.341032 
0.341743 
0.342439 
0.343126 
0.343808 
0.344488 
0.345166 
0.345837 
0.346497 
0.347141 
0.347765 
0.348362 
0.348927 
0.349459 
0.349958 
0.350423 
0.350861 
0.351282 
0.351701 
0.352145 
0.352662 
0.35332 
0.354205 
0.35543 
0.357131 
0.359466 
0.362601 
0.366699 
0.371907 
0.378355 
0.386138 
0.39531 
0.405881 
0.417812 
0.431019 
0.445377 
0.460722 
0.476865 
0.493591 
0.510671 
0.527867 
0.544937 
0.561649 
0.577779 
0.593123 
0.607495 
0.620739 
0.632732 
0.643382 
0.652628 
0.660432 
0.666786 
0.671708 
0.675235 
0.677423 
0.678347 
0.678099 
0.676779 
0.674496 
0.671372 
0.66753 
0.663098 
0.658204 
0.652975 
0.647528 
0.641967 
0.636394 
0.630903 
0.625579 
0.620494 
0.615716 
0.611305 
0.607318 
0.603802 
0.600795 
0.598322 
0.596398 
0.595022 
0.594178 
0.593834 
0.593941 
0.594436 
0.595248 
0.596294 
0.597484 
0.598727 
0.599933 
0.601021 
0.601909 
0.60253 
0.602829 
0.602763 
0.602304 
0.601438 
0.600172 
0.598521 
0.596516 
0.594193 
0.591594 
0.58876 
0.585736 
0.582564 
0.579285 
0.575937 
0.57256 
0.56919 
0.56586 
0.562599 
0.559431 
0.556372 
0.553431 
0.550609 
0.547897 
0.545279 
0.542734 
0.540243 
0.53779 
0.535363 
0.53295 
0.530545 
0.528143 
0.525734 
0.52331 
0.520862 
0.518382 
0.515859 
0.513283 
0.510649 
0.507952 
0.505189 
0.502362 
0.499474 
0.496524 
0.493513 
0.490439 
0.4873 
0.484092 
0.480815 
0.477467 
0.474055 
0.470587 
0.467072 
0.463521 
0.459949 
0.456369 
0.452793 
0.449233 
0.4457 
0.442198 
0.438731 
0.435303 
0.431915 
0.428564 
0.425252 
0.421984 
0.418764 
0.415595 
0.412485 
0.409439 
0.406467 
0.40358 
0.400787 
0.398092 
0.395499 
0.393007 
0.390613 
0.388313 
0.386098 
0.383968 
0.381919 
0.379946 
0.378043 
0.376209 
0.374443 
0.372737 
0.371083 
0.369472 
0.367901 
0.366363 
0.364851 
0.363362 
0.361893 
0.360446 
0.359023 
0.357628 
0.356266 
0.354941 
0.353655 
0.352409 
0.351199 
0.350026 
0.348888 
0.347781 
0.346697 
0.345631 
0.344573 
0.343514 
0.342445 
0.341359 
0.340248 
0.339114 
0.337957 
0.336784 
0.335603 
0.334423 
0.333255 
0.332109 
0.330992 
0.329907 
0.328852 
0.327823 
0.326818 
0.325831 
0.32486 
0.323899 
0.322947 
0.322005 
0.32108 
0.320179 
0.319309 
0.318473 
0.317675 
0.316915 
0.316188 
0.315487 
0.314806 
0.314136 
0.313475 
0.312823 
0.312185 
0.311564 
0.310965 
0.310393 
0.309848 
0.309334 
0.308848 
0.308391 
0.307963 
0.307565 
0.3072 
0.306869 
0.306571 
0.306305 
0.306066 
0.305849 
0.305647 
0.305454 
0.305266 
0.305085 
0.304913 
0.304756 
0.304617 
0.304499 
0.304406 
0.304338 
0.304293 
0.304269 
0.304261 
0.304259 
0.304256 
0.304246 
0.304223 
0.304183 
0.30413 
0.30407 
0.304009 
0.303959 
0.303936 
0.303955 
0.304024 
0.304149 
0.304329 
0.304562 
0.30484 
0.305151 
0.305482 
0.305827 
0.306181 
0.306543 
0.306912 
0.307293 
0.307692 
0.308114 
0.308559 
0.309021 
0.309496 
0.309975 
0.31045 
0.310909 
0.311351 
0.311773 
0.312178 
0.312571 
0.312963 
0.313362 
0.313775 
0.314212 
0.314678 
0.315178 
0.315712 
0.316282 
0.316887 
0.317525 
0.318191 
0.31888 
0.319584 
0.320296 
0.321002 
0.321694 
0.322366 
0.323015 
0.323645 
0.324257 
0.324853 
0.325439 
0.326021 
0.326603 
0.32719 
0.327781 
0.328368 
0.328942 
0.329498 
0.33003 
0.330533 
0.331002 
0.33144 
0.331852 
0.332251 
0.332648 
0.333057 
0.33349 
0.333957 
0.334465 
0.335016 
0.335606 
0.336225 
0.336862 
0.33751 
0.338159 
0.3388 
0.339423 
0.34002 
0.340588 
0.341125 
0.341628 
0.342103 
0.342564 
0.343037 
0.343558 
0.34418 
0.344977 
0.346042 
0.347484 
0.349439 
0.352054 
0.355482 
0.359877 
0.365383 
0.372124 
0.380187 
0.389622 
0.400435 
0.412584 
0.425978 
0.440488 
0.455944 
0.472147 
0.488875 
0.505894 
0.522964 
0.539845 
0.556302 
0.572113 
0.587073 
0.601003 
0.613751 
0.625197 
0.635251 
0.643861 
0.651 
0.656672 
0.660908 
0.663764 
0.665312 
0.665641 
0.664857 
0.66307 
0.660399 
0.656965 
0.652894 
0.648312 
0.64334 
0.638096 
0.632696 
0.627255 
0.621883 
0.616684 
0.611758 
0.607198 
0.603086 
0.599488 
0.596457 
0.594027 
0.592211 
0.59101 
0.59041 
0.590373 
0.590856 
0.591801 
0.593136 
0.594779 
0.596638 
0.598617 
0.600609 
0.602509 
0.604217 
0.605643 
0.606708 
0.607348 
0.60752 
0.607197 
0.60637 
0.605046 
0.603244 
0.600988 
0.598313 
0.595259 
0.591865 
0.588184 
0.58427 
0.58018 
0.575973 
0.571711 
0.567452 
0.563249 
0.559147 
0.555184 
0.551387 
0.54777 
0.544336 
0.541082 
0.538003 
0.535088 
0.53233 
0.529717 
0.527236 
0.52487 
0.5226 
0.520402 
0.51825 
0.516116 
0.513968 
0.511778 
0.50952 
0.507175 
0.50473 
0.502176 
0.499512 
0.496741 
0.493864 
0.490883 
0.487801 
0.484626 
0.481362 
0.478021 
0.474613 
0.471148 
0.467641 
0.464107 
0.460559 
0.457009 
0.453463 
0.44993 
0.446414 
0.442916 
0.439435 
0.435972 
0.43253 
0.429107 
0.425703 
0.422322 
0.418966 
0.415637 
0.412339 
0.40908 
0.40587 
0.402716 
0.399628 
0.396618 
0.393691 
0.39085 
0.388092 
0.385419 
0.382832 
0.380331 
0.377917 
0.375591 
0.373354 
0.371208 
0.369152 
0.367175 
0.36527 
0.363426 
0.361632 
0.359873 
0.358138 
0.35642 
0.354715 
0.353025 
0.351353 
0.349704 
0.348085 
0.346508 
0.344981 
0.343514 
0.342115 
0.34079 
0.339539 
0.338354 
0.33722 
0.336125 
0.335053 
0.33399 
0.332918 
0.331826 
0.330707 
0.329561 
0.32839 
0.327199 
0.325994 
0.324784 
0.323577 
0.322381 
0.321199 
0.320033 
0.318888 
0.317766 
0.316669 
0.315598 
0.314547 
0.313516 
0.312502 
0.311506 
0.310525 
0.309556 
0.3086 
0.307655 
0.306717 
0.305787 
0.304869 
0.303966 
0.303085 
0.302231 
0.30141 
0.300629 
0.299892 
0.299197 
0.298541 
0.297917 
0.297316 
0.296731 
0.296156 
0.295593 
0.295044 
0.29451 
0.293994 
0.293503 
0.293037 
0.292594 
0.29217 
0.291761 
0.291364 
0.290975 
0.290596 
0.290234 
0.289895 
0.289587 
0.289318 
0.289092 
0.288907 
0.288764 
0.288659 
0.288592 
0.288561 
0.288565 
0.288607 
0.288684 
0.288794 
0.288931 
0.289093 
0.289278 
0.28948 
0.289691 
0.289906 
0.290122 
0.290336 
0.290546 
0.290754 
0.290962 
0.291174 
0.291394 
0.291632 
0.291895 
0.292194 
0.292533 
0.292911 
0.293327 
0.293778 
0.294255 
0.294748 
0.295253 
0.295768 
0.296292 
0.296823 
0.297363 
0.297916 
0.298483 
0.299067 
0.299664 
0.300267 
0.30087 
0.301466 
0.302049 
0.302614 
0.30316 
0.303684 
0.304188 
0.304675 
0.305151 
0.305619 
0.306079 
0.306532 
0.30698 
0.307422 
0.307855 
0.308281 
0.308703 
0.309127 
0.309559 
0.310005 
0.310471 
0.310961 
0.311474 
0.312012 
0.312573 
0.313155 
0.313758 
0.314379 
0.315016 
0.31567 
0.316344 
0.317038 
0.317752 
0.318486 
0.319238 
0.320009 
0.320795 
0.321598 
0.322419 
0.323257 
0.324106 
0.324958 
0.325811 
0.326661 
0.327503 
0.328335 
0.329155 
0.329962 
0.330754 
0.331533 
0.332296 
0.333041 
0.333763 
0.334458 
0.335123 
0.335756 
0.336355 
0.336923 
0.337465 
0.337993 
0.338522 
0.339064 
0.339634 
0.340244 
0.340903 
0.341613 
0.342375 
0.343184 
0.344035 
0.344916 
0.345813 
0.34671 
0.347595 
0.348457 
0.349284 
0.350067 
0.350805 
0.351492 
0.352131 
0.352723 
0.353275 
0.353799 
0.354306 
0.354806 
0.355306 
0.355811 
0.356325 
0.356848 
0.357382 
0.357933 
0.358515 
0.359164 
0.359928 
0.360883 
0.362132 
0.363801 
0.366036 
0.368999 
0.372858 
0.377774 
0.383887 
0.391307 
0.400107 
0.410314 
0.421903 
0.434799 
0.448884 
0.463998 
0.479952 
0.496532 
0.513507 
0.530641 
0.547699 
0.564455 
0.580698 
0.596235 
0.610893 
0.624522 
0.636995 
0.648208 
0.658081 
0.666564 
0.673634 
0.679293 
0.683565 
0.686491 
0.688129 
0.688553 
0.687846 
0.686104 
0.683429 
0.679932 
0.675729 
0.670941 
0.665687 
0.66009 
0.65427 
0.648341 
0.642407 
0.636567 
0.63091 
0.625515 
0.620452 
0.615784 
0.611566 
0.607838 
0.604634 
0.601978 
0.59988 
0.598338 
0.597335 
0.596836 
0.59679 
0.597134 
0.597789 
0.598672 
0.599697 
0.600781 
0.601842 
0.602806 
0.603605 
0.604177 
0.604471 
0.604449 
0.604084 
0.60336 
0.60227 
0.600822 
0.599033 
0.596926 
0.59453 
0.591884 
0.58903 
0.58601 
0.582864 
0.57963 
0.576342 
0.573033 
0.569736 
0.566479 
0.563283 
0.560173 
0.557169 
0.554281 
0.551509 
0.548846 
0.546278 
0.543785 
0.541344 
0.538933 
0.536532 
0.534123 
0.53169 
0.529222 
0.526712 
0.524152 
0.521541 
0.518875 
0.516147 
0.513354 
0.510493 
0.507562 
0.50456 
0.501491 
0.49836 
0.495173 
0.491937 
0.488658 
0.485342 
0.481985 
0.47858 
0.475123 
0.471605 
0.468017 
0.464358 
0.460634 
0.456856 
0.45304 
0.449205 
0.445371 
0.441558 
0.437786 
0.434074 
0.430436 
0.426881 
0.423408 
0.420016 
0.416701 
0.41346 
0.410293 
0.407202 
0.404189 
0.401254 
0.3984 
0.395632 
0.392951 
0.390355 
0.387841 
0.385406 
0.383049 
0.380766 
0.378555 
0.376412 
0.37434 
0.372336 
0.370398 
0.368526 
0.366714 
0.364964 
0.363275 
0.361645 
0.360071 
0.358555 
0.357099 
0.355704 
0.354371 
0.353096 
0.35188 
0.350715 
0.349597 
0.348519 
0.347473 
0.346453 
0.34545 
0.344461 
0.343476 
0.342494 
0.341517 
0.340544 
0.339573 
0.338604 
0.337633 
0.336654 
0.335664 
0.334664 
0.333653 
0.332638 
0.331626 
0.330628 
0.32965 
0.328697 
0.327771 
0.326871 
0.325991 
0.325127 
0.324274 
0.323432 
0.322601 
0.321776 
0.320957 
0.320143 
0.319334 
0.318533 
0.317742 
0.316967 
0.316211 
0.315474 
0.314755 
0.314049 
0.313354 
0.31267 
0.311995 
0.311329 
0.31067 
0.310021 
0.309384 
0.308765 
0.308176 
0.307624 
0.307124 
0.306681 
0.306301 
0.305989 
0.305746 
0.305572 
0.305461 
0.305401 
0.30538 
0.305384 
0.305399 
0.305414 
0.305415 
0.305399 
0.305364 
0.305311 
0.305244 
0.305173 
0.305109 
0.305063 
0.305046 
0.305065 
0.305129 
0.305241 
0.305397 
0.30559 
0.305809 
0.306046 
0.306289 
0.306532 
0.306767 
0.306988 
0.307195 
0.307386 
0.307559 
0.307713 
0.307847 
0.307964 
0.308065 
0.308157 
0.308247 
0.308346 
0.308464 
0.308611 
0.308793 
0.309018 
0.309292 
0.309617 
0.309994 
0.310415 
0.310872 
0.311355 
0.311853 
0.312358 
0.312863 
0.313366 
0.313865 
0.314358 
0.314845 
0.315329 
0.315812 
0.316296 
0.316782 
0.317265 
0.317739 
0.3182 
0.318645 
0.319068 
0.319468 
0.319842 
0.320194 
0.320529 
0.320854 
0.321179 
0.321511 
0.321863 
0.322243 
0.322654 
0.323096 
0.323563 
0.324047 
0.324543 
0.325044 
0.325542 
0.326032 
0.326517 
0.326995 
0.32747 
0.327949 
0.32844 
0.328948 
0.329477 
0.330031 
0.330606 
0.331198 
0.331796 
0.332391 
0.332976 
0.333545 
0.334096 
0.334631 
0.335147 
0.335649 
0.336144 
0.336637 
0.337131 
0.337635 
0.338154 
0.338696 
0.339263 
0.339856 
0.340477 
0.341125 
0.341795 
0.342481 
0.343172 
0.34386 
0.344532 
0.345178 
0.345789 
0.346355 
0.346877 
0.347361 
0.347812 
0.348242 
0.348662 
0.349084 
0.349518 
0.349974 
0.350459 
0.350981 
0.35156 
0.352228 
0.353034 
0.354047 
0.35536 
0.35709 
0.35938 
0.362384 
0.366268 
0.371186 
0.377274 
0.384642 
0.393361 
0.403461 
0.414922 
0.427682 
0.441637 
0.456642 
0.472523 
0.489074 
0.50607 
0.523275 
0.540445 
0.557343 
0.573744 
0.589443 
0.604256 
0.618027 
0.630625 
0.641948 
0.651925 
0.660513 
0.667695 
0.673474 
0.677876 
0.68094 
0.682728 
0.683318 
0.682797 
0.681262 
0.678812 
0.675556 
0.671606 
0.667079 
0.662084 
0.656736 
0.651148 
0.645431 
0.639692 
0.634029 
0.628538 
0.623312 
0.618436 
0.613984 
0.61002 
0.606592 
0.603739 
0.601483 
0.599828 
0.598758 
0.598244 
0.598233 
0.598666 
0.599469 
0.600558 
0.60184 
0.603217 
0.604588 
0.605859 
0.606941 
0.60775 
0.60822 
0.608305 
0.607975 
0.607219 
0.606039 
0.604455 
0.602497 
0.600203 
0.597614 
0.594778 
0.591738 
0.588535 
0.585202 
0.581776 
0.578289 
0.574769 
0.57124 
0.567726 
0.564247 
0.560827 
0.557481 
0.554225 
0.551073 
0.548033 
0.545115 
0.542328 
0.539671 
0.537139 
0.534721 
0.532399 
0.53015 
0.527947 
0.525759 
0.523557 
0.521315 
0.519011 
0.516633 
0.514173 
0.511624 
0.508978 
0.506232 
0.503383 
0.500426 
0.497362 
0.494192 
0.490922 
0.48756 
0.484113 
0.480587 
0.476992 
0.473338 
0.469634 
0.46589 
0.462115 
0.458312 
0.454482 
0.45063 
0.446767 
0.442905 
0.439056 
0.435233 
0.43145 
0.427727 
0.424077 
0.42051 
0.41703 
0.41364 
0.410342 
0.40713 
0.403995 
0.400931 
0.397938 
0.395018 
0.392178 
0.389427 
0.386772 
0.384224 
0.381781 
0.379443 
0.377203 
0.375052 
0.372974 
0.370952 
0.368972 
0.36702 
0.365088 
0.363175 
0.361283 
0.359417 
0.357585 
0.355797 
0.354061 
0.352386 
0.350775 
0.349227 
0.347742 
0.346316 
0.344946 
0.343622 
0.342334 
0.341074 
0.339838 
0.338622 
0.337423 
0.33625 
0.335113 
0.334019 
0.332975 
0.331987 
0.331052 
0.330165 
0.329312 
0.328474 
0.327634 
0.326777 
0.325892 
0.324972 
0.324012 
0.32301 
0.321971 
0.320904 
0.319813 
0.318705 
0.317589 
0.316473 
0.315368 
0.314282 
0.313218 
0.312181 
0.311173 
0.310188 
0.309221 
0.308263 
0.307311 
0.306363 
0.305423 
0.304494 
0.303581 
0.302692 
0.301831 
0.301002 
0.300211 
0.299457 
0.298744 
0.298069 
0.297429 
0.296823 
0.296252 
0.295717 
0.295218 
0.294757 
0.294338 
0.293961 
0.293622 
0.293319 
0.293048 
0.292806 
0.292584 
0.292376 
0.292179 
0.29199 
0.291804 
0.291619 
0.291433 
0.291246 
0.291057 
0.290868 
0.290674 
0.290478 
0.290283 
0.290097 
0.289926 
0.289774 
0.289642 
0.289529 
0.28943 
0.289345 
0.289275 
0.289218 
0.289176 
0.28916 
0.28918 
0.289249 
0.289378 
0.289577 
0.289851 
0.290202 
0.290619 
0.291097 
0.291625 
0.292189 
0.292775 
0.293376 
0.293986 
0.294601 
0.29522 
0.295842 
0.296471 
0.297105 
0.297745 
0.298394 
0.29905 
0.299711 
0.300374 
0.301037 
0.301691 
0.30233 
0.302949 
0.303546 
0.304118 
0.304669 
0.305204 
0.305727 
0.306246 
0.306768 
0.3073 
0.307845 
0.308408 
0.308992 
0.309604 
0.310253 
0.310942 
0.311673 
0.312444 
0.313246 
0.314063 
0.31488 
0.315687 
0.316476 
0.317238 
0.317968 
0.318662 
0.319325 
0.319964 
0.320582 
0.321182 
0.321766 
0.322335 
0.32289 
0.323429 
0.323956 
0.32448 
0.325007 
0.325545 
0.326103 
0.326691 
0.327312 
0.327967 
0.328653 
0.329367 
0.330099 
0.330838 
0.331567 
0.33227 
0.332936 
0.333555 
0.334128 
0.334655 
0.335144 
0.335602 
0.336036 
0.336457 
0.336873 
0.337293 
0.337723 
0.338166 
0.338627 
0.339106 
0.339605 
0.340122 
0.340652 
0.34119 
0.341735 
0.342285 
0.342842 
0.343408 
0.343986 
0.344581 
0.345201 
0.345849 
0.346528 
0.347235 
0.347964 
0.348704 
0.349444 
0.350176 
0.350891 
0.351578 
0.352228 
0.352837 
0.353406 
0.353935 
0.35442 
0.354861 
0.35526 
0.355623 
0.355969 
0.356331 
0.356763 
0.357341 
0.358169 
0.359382 
0.361134 
0.363597 
0.366945 
0.37135 
0.376968 
0.383928 
0.392321 
0.402194 
0.413542 
0.426312 
0.4404 
0.455655 
0.471886 
0.488873 
0.506374 
0.524132 
0.541887 
0.559385 
0.576382 
0.592658 
0.608016 
0.622286 
0.635326 
0.647024 
0.657301 
0.666103 
0.673411 
0.679227 
0.683573 
0.686493 
0.688051 
0.688328 
0.687419 
0.685437 
0.682501 
0.678741 
0.674286 
0.669265 
0.663805 
0.658024 
0.652043 
0.645976 
0.639931 
0.634002 
0.628281 
0.622855 
0.617795 
0.613163 
0.609008 
0.605371 
0.602279 
0.599754 
0.597809 
0.596443 
0.595645 
0.595391 
0.595641 
0.596341 
0.597421 
0.5988 
0.600384 
0.602069 
0.60375 
0.605327 
0.606706 
0.607804 
0.608553 
0.6089 
0.608808 
0.608258 
0.607243 
0.605773 
0.603866 
0.601554 
0.598873 
0.595867 
0.592581 
0.589062 
0.585358 
0.581516 
0.577582 
0.573598 
0.569605 
0.565643 
0.561743 
0.557933 
0.554236 
0.550668 
0.54724 
0.543956 
0.540815 
0.53781 
0.534926 
0.532149 
0.529461 
0.526842 
0.52427 
0.521723 
0.519181 
0.516622 
0.51403 
0.511387 
0.508681 
0.505903 
0.503045 
0.500094 
0.49704 
0.493882 
0.490619 
0.487254 
0.483791 
0.48024 
0.476615 
0.472934 
0.469211 
0.46546 
0.46169 
0.457905 
0.454107 
0.450297 
0.446475 
0.442644 
0.438809 
0.434977 
0.431159 
0.427364 
0.423607 
0.419898 
0.416244 
0.412654 
0.409135 
0.405693 
0.402329 
0.399041 
0.395829 
0.392695 
0.389639 
0.386663 
0.383769 
0.380961 
0.378244 
0.375624 
0.373104 
0.370689 
0.368377 
0.366163 
0.364041 
0.362 
0.360025 
0.358105 
0.35623 
0.354394 
0.352597 
0.350836 
0.34911 
0.347419 
0.345761 
0.344128 
0.342512 
0.340904 
0.339301 
0.337704 
0.336118 
0.33455 
0.333015 
0.331531 
0.330113 
0.328772 
0.327513 
0.32634 
0.325245 
0.324221 
0.323258 
0.322345 
0.321472 
0.320633 
0.319823 
0.319042 
0.318287 
0.317554 
0.316839 
0.316139 
0.315447 
0.314761 
0.314074 
0.313378 
0.312667 
0.31194 
0.311194 
0.310431 
0.309648 
0.308845 
0.308024 
0.307183 
0.306327 
0.30546 
0.304591 
0.303726 
0.302871 
0.302037 
0.301231 
0.300457 
0.299717 
0.299003 
0.298307 
0.297624 
0.296948 
0.296273 
0.295598 
0.294924 
0.294255 
0.293596 
0.292954 
0.292332 
0.291731 
0.291152 
0.290593 
0.290051 
0.289525 
0.28901 
0.288506 
0.288014 
0.287542 
0.287093 
0.286674 
0.286292 
0.28596 
0.285686 
0.285477 
0.285339 
0.285274 
0.285277 
0.285344 
0.28547 
0.285653 
0.28589 
0.286179 
0.28652 
0.286911 
0.287353 
0.287843 
0.288374 
0.288939 
0.289526 
0.290121 
0.290709 
0.291277 
0.291816 
0.292322 
0.292799 
0.293254 
0.293691 
0.294118 
0.294538 
0.294957 
0.295377 
0.295802 
0.296228 
0.296655 
0.297082 
0.297506 
0.297929 
0.298351 
0.298772 
0.299193 
0.299616 
0.300038 
0.300458 
0.300879 
0.301306 
0.301749 
0.302217 
0.302718 
0.303265 
0.303862 
0.304514 
0.305223 
0.305986 
0.306794 
0.307637 
0.308506 
0.30939 
0.31028 
0.311169 
0.312053 
0.312926 
0.313787 
0.314634 
0.315467 
0.316285 
0.31709 
0.317881 
0.318661 
0.319429 
0.320182 
0.320919 
0.321639 
0.322345 
0.323041 
0.323727 
0.324411 
0.325099 
0.325791 
0.32649 
0.327194 
0.327898 
0.328602 
0.329302 
0.329999 
0.330695 
0.331387 
0.332075 
0.332757 
0.333435 
0.334105 
0.334765 
0.335421 
0.336077 
0.336736 
0.337406 
0.338093 
0.338803 
0.339538 
0.340297 
0.341078 
0.341875 
0.34268 
0.343486 
0.344287 
0.345074 
0.345841 
0.346583 
0.347296 
0.34798 
0.348635 
0.349263 
0.34987 
0.350461 
0.351042 
0.351623 
0.352207 
0.3528 
0.353405 
0.354023 
0.354655 
0.355302 
0.355963 
0.356636 
0.357321 
0.358015 
0.358718 
0.359428 
0.36014 
0.360848 
0.361541 
0.362216 
0.362867 
0.363491 
0.364079 
0.364628 
0.36514 
0.365622 
0.366094 
0.366586 
0.367144 
0.367829 
0.36872 
0.369917 
0.371539 
0.373725 
0.376626 
0.380402 
0.385205 
0.391176 
0.39843 
0.407047 
0.417066 
0.428481 
0.441242 
0.455249 
0.470355 
0.486379 
0.503108 
0.520312 
0.537745 
0.555156 
0.572297 
0.588939 
0.604869 
0.619902 
0.633877 
0.646666 
0.658169 
0.668311 
0.677045 
0.684352 
0.690241 
0.694741 
0.697906 
0.699806 
0.700525 
0.700151 
0.69878 
0.696511 
0.693446 
0.689684 
0.685322 
0.680456 
0.675185 
0.669603 
0.663803 
0.657874 
0.651903 
0.645972 
0.640152 
0.634507 
0.629098 
0.623975 
0.619185 
0.614768 
0.61076 
0.607193 
0.604092 
0.601476 
0.599351 
0.597712 
0.596533 
0.595775 
0.595382 
0.595283 
0.595397 
0.595641 
0.595929 
0.596185 
0.59634 
0.596344 
0.59616 
0.595763 
0.595142 
0.594298 
0.593232 
0.591952 
0.590468 
0.588791 
0.586931 
0.5849 
0.582716 
0.580401 
0.577979 
0.575477 
0.572925 
0.570359 
0.567812 
0.565309 
0.562877 
0.56053 
0.558275 
0.55611 
0.554021 
0.551992 
0.550001 
0.548029 
0.546057 
0.544067 
0.542044 
0.539966 
0.537819 
0.535587 
0.533258 
0.530821 
0.528267 
0.525594 
0.522803 
0.519899 
0.516889 
0.513782 
0.510585 
0.507304 
0.503943 
0.500503 
0.496988 
0.493402 
0.489757 
0.486062 
0.482328 
0.478571 
0.474808 
0.471053 
0.467311 
0.463591 
0.459898 
0.456234 
0.452599 
0.449 
0.445439 
0.44192 
0.438447 
0.435022 
0.431647 
0.428323 
0.425043 
0.421802 
0.418597 
0.415425 
0.412284 
0.409177 
0.40611 
0.403092 
0.400129 
0.397234 
0.394416 
0.391681 
0.389033 
0.386474 
0.384004 
0.381619 
0.379318 
0.377096 
0.374953 
0.372886 
0.370896 
0.36898 
0.367143 
0.365389 
0.363723 
0.362146 
0.360659 
0.359258 
0.357938 
0.356686 
0.35549 
0.354331 
0.353196 
0.35207 
0.350938 
0.349787 
0.348605 
0.347387 
0.346134 
0.344853 
0.343552 
0.342246 
0.340945 
0.33966 
0.338405 
0.337193 
0.336034 
0.334932 
0.333884 
0.332886 
0.331931 
0.331007 
0.330099 
0.329197 
0.328292 
0.327374 
0.326441 
0.325498 
0.32455 
0.323606 
0.322679 
0.321777 
0.320904 
0.32006 
0.319244 
0.318455 
0.317685 
0.316929 
0.316182 
0.31544 
0.314701 
0.313967 
0.313237 
0.312512 
0.311792 
0.311073 
0.31035 
0.309619 
0.308875 
0.308118 
0.307355 
0.306596 
0.305855 
0.305144 
0.304473 
0.30385 
0.303274 
0.302738 
0.302234 
0.301752 
0.301284 
0.300824 
0.300366 
0.29991 
0.299462 
0.299028 
0.298613 
0.298223 
0.29786 
0.29753 
0.297237 
0.296988 
0.296788 
0.296642 
0.29655 
0.296512 
0.29652 
0.296569 
0.296649 
0.296753 
0.296873 
0.297 
0.297129 
0.297258 
0.297389 
0.297532 
0.297693 
0.297877 
0.298084 
0.298315 
0.298567 
0.298833 
0.299105 
0.299377 
0.299639 
0.299889 
0.300129 
0.300359 
0.300584 
0.300813 
0.301054 
0.301314 
0.301599 
0.301914 
0.302265 
0.302656 
0.303089 
0.303559 
0.304057 
0.304577 
0.305109 
0.305643 
0.306167 
0.306677 
0.307171 
0.30765 
0.308117 
0.308577 
0.309034 
0.309496 
0.309968 
0.310459 
0.310977 
0.311526 
0.31211 
0.312727 
0.313372 
0.314035 
0.314706 
0.31538 
0.316047 
0.316701 
0.317338 
0.317956 
0.31855 
0.31912 
0.319671 
0.320205 
0.320726 
0.32124 
0.321753 
0.32227 
0.322797 
0.323332 
0.323866 
0.324389 
0.324892 
0.325368 
0.325813 
0.326228 
0.326619 
0.326996 
0.32737 
0.327752 
0.328156 
0.328592 
0.329068 
0.329588 
0.330149 
0.330749 
0.331381 
0.332039 
0.332716 
0.333406 
0.334106 
0.334816 
0.335535 
0.336269 
0.337023 
0.337799 
0.338597 
0.339414 
0.340249 
0.341098 
0.34196 
0.342832 
0.343708 
0.344584 
0.345456 
0.346323 
0.347177 
0.348014 
0.348825 
0.349605 
0.35035 
0.351062 
0.351738 
0.352378 
0.352984 
0.353558 
0.3541 
0.35461 
0.355088 
0.355538 
0.355966 
0.356375 
0.356769 
0.357155 
0.357547 
0.357969 
0.358463 
0.359088 
0.359927 
0.361097 
0.362734 
0.364999 
0.368073 
0.372141 
0.377379 
0.383942 
0.391943 
0.401448 
0.412477 
0.424994 
0.438908 
0.454081 
0.470333 
0.487456 
0.50522 
0.523383 
0.541703 
0.559934 
0.577844 
0.595208 
0.611817 
0.627481 
0.642033 
0.655329 
0.667247 
0.6777 
0.686635 
0.694029 
0.699885 
0.704239 
0.707151 
0.708704 
0.708992 
0.708118 
0.706193 
0.703332 
0.699651 
0.695267 
0.690296 
0.684859 
0.679072 
0.673053 
0.666915 
0.66077 
0.65472 
0.64886 
0.64328 
0.63806 
0.633269 
0.628964 
0.62519 
0.621983 
0.619367 
0.617352 
0.615938 
0.61511 
0.614841 
0.615086 
0.615786 
0.616866 
0.618239 
0.619811 
0.621482 
0.623154 
0.624728 
0.626114 
0.627228 
0.628 
0.628371 
0.628295 
0.627743 
0.626703 
0.625175 
0.623172 
0.62072 
0.617854 
0.614615 
0.611057 
0.607232 
0.603195 
0.599001 
0.594702 
0.590351 
0.585991 
0.58166 
0.577393 
0.573217 
0.569153 
0.565212 
0.561403 
0.557736 
0.554216 
0.550847 
0.547629 
0.544557 
0.541627 
0.538831 
0.53615 
0.533559 
0.531027 
0.528525 
0.526021 
0.523482 
0.520885 
0.518208 
0.515442 
0.512581 
0.509627 
0.506586 
0.503466 
0.500275 
0.497022 
0.493715 
0.490364 
0.486973 
0.483545 
0.480078 
0.476566 
0.473005 
0.469388 
0.465714 
0.461984 
0.458204 
0.454382 
0.450527 
0.44665 
0.442763 
0.438881 
0.435019 
0.431186 
0.427394 
0.423649 
0.419963 
0.416343 
0.412793 
0.409316 
0.405911 
0.402577 
0.399314 
0.39612 
0.392994 
0.389931 
0.386928 
0.38398 
0.381087 
0.378244 
0.375451 
0.372711 
0.370023 
0.367393 
0.364825 
0.362331 
0.35992 
0.357603 
0.355393 
0.353298 
0.351321 
0.349457 
0.347703 
0.346048 
0.344483 
0.342994 
0.341565 
0.340182 
0.338829 
0.337493 
0.336158 
0.334819 
0.333473 
0.332121 
0.330766 
0.329416 
0.328076 
0.326751 
0.325449 
0.32418 
0.322955 
0.321781 
0.320663 
0.319604 
0.318606 
0.317666 
0.316778 
0.315932 
0.315119 
0.314328 
0.313547 
0.312766 
0.311974 
0.311162 
0.310325 
0.309466 
0.308588 
0.307694 
0.306791 
0.305884 
0.304984 
0.304096 
0.303222 
0.302365 
0.301528 
0.300713 
0.299921 
0.299148 
0.298393 
0.297655 
0.296926 
0.2962 
0.295471 
0.294732 
0.293975 
0.293196 
0.292397 
0.291585 
0.29077 
0.289963 
0.289177 
0.288425 
0.287717 
0.287061 
0.286458 
0.285908 
0.285408 
0.284955 
0.284544 
0.284176 
0.283853 
0.283577 
0.283349 
0.283172 
0.283049 
0.282979 
0.282958 
0.282981 
0.283042 
0.283134 
0.283247 
0.28337 
0.283493 
0.283608 
0.283708 
0.283789 
0.283853 
0.283904 
0.283945 
0.283984 
0.284031 
0.284096 
0.28419 
0.284323 
0.284499 
0.284718 
0.28498 
0.285282 
0.285624 
0.286002 
0.286413 
0.286856 
0.287326 
0.287821 
0.288336 
0.288863 
0.289393 
0.289916 
0.290423 
0.290905 
0.291362 
0.291789 
0.292188 
0.292562 
0.292921 
0.293271 
0.293619 
0.293971 
0.294336 
0.29472 
0.295128 
0.295563 
0.296026 
0.296516 
0.297029 
0.297559 
0.298099 
0.298646 
0.299199 
0.299759 
0.300328 
0.300912 
0.301517 
0.302147 
0.3028 
0.303476 
0.304177 
0.304899 
0.305638 
0.306391 
0.307151 
0.307912 
0.308669 
0.309413 
0.310136 
0.310831 
0.311493 
0.312115 
0.312689 
0.313207 
0.31367 
0.31409 
0.314478 
0.314845 
0.315211 
0.315595 
0.316016 
0.316483 
0.317 
0.317568 
0.318179 
0.318825 
0.319498 
0.320191 
0.320895 
0.321604 
0.322308 
0.323004 
0.323688 
0.324355 
0.325001 
0.325622 
0.326218 
0.32679 
0.327346 
0.327898 
0.328465 
0.329062 
0.329707 
0.33041 
0.331176 
0.332007 
0.332897 
0.33384 
0.334828 
0.335851 
0.336895 
0.337945 
0.338983 
0.339997 
0.34098 
0.341925 
0.342825 
0.343678 
0.344482 
0.34524 
0.345959 
0.346644 
0.347302 
0.347937 
0.348555 
0.349158 
0.349747 
0.350331 
0.350929 
0.351573 
0.352311 
0.353212 
0.354365 
0.355885 
0.357904 
0.360576 
0.364062 
0.368523 
0.374112 
0.380958 
0.389159 
0.398771 
0.409805 
0.422221 
0.435934 
0.450814 
0.466692 
0.483369 
0.500624 
0.518223 
0.535927 
0.553497 
0.570704 
0.587331 
0.603185 
0.6181 
0.631934 
0.644572 
0.655922 
0.665922 
0.674533 
0.681741 
0.687549 
0.691982 
0.695082 
0.696906 
0.697528 
0.697034 
0.695518 
0.693086 
0.689848 
0.685917 
0.681405 
0.676428 
0.671099 
0.665521 
0.659794 
0.654011 
0.648261 
0.642626 
0.637185 
0.632008 
0.627162 
0.622703 
0.618676 
0.615112 
0.612035 
0.609452 
0.607362 
0.605757 
0.604617 
0.603916 
0.603613 
0.603657 
0.603992 
0.604557 
0.605284 
0.606097 
0.606916 
0.607659 
0.608247 
0.608611 
0.608692 
0.60845 
0.607855 
0.606899 
0.605587 
0.603936 
0.601969 
0.599715 
0.597202 
0.594466 
0.591542 
0.588467 
0.585275 
0.581995 
0.578658 
0.575296 
0.571945 
0.568641 
0.565411 
0.562279 
0.559262 
0.556374 
0.553614 
0.550974 
0.548439 
0.545984 
0.543579 
0.541193 
0.5388 
0.53638 
0.533912 
0.531385 
0.528794 
0.526138 
0.523415 
0.520628 
0.517782 
0.514882 
0.511929 
0.508918 
0.505845 
0.502709 
0.499511 
0.496252 
0.492932 
0.489554 
0.486121 
0.482636 
0.479101 
0.475522 
0.471904 
0.468249 
0.464561 
0.460849 
0.457128 
0.45341 
0.449702 
0.446014 
0.442358 
0.438738 
0.435156 
0.43161 
0.428103 
0.424635 
0.421208 
0.417824 
0.414485 
0.411197 
0.40797 
0.404807 
0.401712 
0.398689 
0.395741 
0.392871 
0.390081 
0.387367 
0.384731 
0.382174 
0.379701 
0.37731 
0.374997 
0.372759 
0.370587 
0.368473 
0.366413 
0.364405 
0.362447 
0.360539 
0.358684 
0.356884 
0.355137 
0.353444 
0.351807 
0.350228 
0.348708 
0.347247 
0.345847 
0.344513 
0.343248 
0.342056 
0.340933 
0.339875 
0.338877 
0.337931 
0.337025 
0.336146 
0.335282 
0.334424 
0.333561 
0.332685 
0.33179 
0.330873 
0.329934 
0.328974 
0.327997 
0.327009 
0.326014 
0.325017 
0.324018 
0.323019 
0.322021 
0.321021 
0.320018 
0.319013 
0.318008 
0.317004 
0.316009 
0.31503 
0.314077 
0.313159 
0.312281 
0.311442 
0.310636 
0.309856 
0.309095 
0.308343 
0.307593 
0.306845 
0.306102 
0.305369 
0.30465 
0.303955 
0.30329 
0.30266 
0.302066 
0.301507 
0.30098 
0.300481 
0.300002 
0.299539 
0.29909 
0.298654 
0.298234 
0.297835 
0.297465 
0.29713 
0.296832 
0.296573 
0.296352 
0.296167 
0.296008 
0.295864 
0.295725 
0.295586 
0.295441 
0.295289 
0.29513 
0.294963 
0.294792 
0.294623 
0.294459 
0.294302 
0.294158 
0.294029 
0.293915 
0.293821 
0.293748 
0.293703 
0.293691 
0.293723 
0.293807 
0.29395 
0.294155 
0.294427 
0.294768 
0.295177 
0.295649 
0.296175 
0.296747 
0.29735 
0.29797 
0.298596 
0.299213 
0.299808 
0.300372 
0.300903 
0.301406 
0.301894 
0.30238 
0.302873 
0.303385 
0.303926 
0.304507 
0.305134 
0.305804 
0.30651 
0.307249 
0.308012 
0.308787 
0.309559 
0.310316 
0.31105 
0.311757 
0.312431 
0.313068 
0.313667 
0.314231 
0.314764 
0.315268 
0.315749 
0.31621 
0.316652 
0.317076 
0.317484 
0.317873 
0.318246 
0.318609 
0.318971 
0.319339 
0.319721 
0.320131 
0.320576 
0.321061 
0.321589 
0.322162 
0.322775 
0.323422 
0.324089 
0.324768 
0.32545 
0.326127 
0.326795 
0.327455 
0.328107 
0.328758 
0.329409 
0.330067 
0.330737 
0.331421 
0.332118 
0.332826 
0.333544 
0.334272 
0.335018 
0.335799 
0.336654 
0.337644 
0.338858 
0.340408 
0.34243 
0.345076 
0.348509 
0.35289 
0.35837 
0.365067 
0.373068 
0.382412 
0.393094 
0.405059 
0.418204 
0.432391 
0.447452 
0.463196 
0.479413 
0.495888 
0.512406 
0.528758 
0.544748 
0.560188 
0.574905 
0.588739 
0.601554 
0.613234 
0.623682 
0.632829 
0.64063 
0.647067 
0.652143 
0.655887 
0.658349 
0.659595 
0.659711 
0.658795 
0.65695 
0.654284 
0.650904 
0.646924 
0.642453 
0.637599 
0.632471 
0.627178 
0.621822 
0.616503 
0.611311 
0.60633 
0.601631 
0.597273 
0.593307 
0.589768 
0.586679 
0.584052 
0.581885 
0.580166 
0.578866 
0.57795 
0.577366 
0.577056 
0.576953 
0.576984 
0.577082 
0.577179 
0.577209 
0.57712 
0.576865 
0.576406 
0.575713 
0.574769 
0.57357 
0.57212 
0.570432 
0.568526 
0.566432 
0.564181 
0.561811 
0.559355 
0.556843 
0.554301 
0.551748 
0.549196 
0.546652 
0.54412 
0.541609 
0.539127 
0.536688 
0.534305 
0.531996 
0.529774 
0.527645 
0.525607 
0.523655 
0.521776 
0.519952 
0.518167 
0.5164 
0.514628 
0.51283 
0.510987 
0.50908 
0.507096 
0.505021 
0.502843 
0.500549 
0.498132 
0.495585 
0.492904 
0.490088 
0.487138 
0.484057 
0.480858 
0.477556 
0.47417 
0.470716 
0.467208 
0.46366 
0.460084 
0.456491 
0.45289 
0.44929 
0.445704 
0.442146 
0.438628 
0.435158 
0.431745 
0.428395 
0.425115 
0.4219 
0.418747 
0.415652 
0.412612 
0.409623 
0.406687 
0.403807 
0.400988 
0.398227 
0.395528 
0.392891 
0.390311 
0.387781 
0.385288 
0.382825 
0.38039 
0.377988 
0.375626 
0.373319 
0.371083 
0.368938 
0.366896 
0.364962 
0.363141 
0.361431 
0.359829 
0.358329 
0.35692 
0.355592 
0.354333 
0.353131 
0.351976 
0.350857 
0.349772 
0.348717 
0.347689 
0.346685 
0.345706 
0.34475 
0.343812 
0.342889 
0.341973 
0.341063 
0.340155 
0.339248 
0.338342 
0.337432 
0.336519 
0.335601 
0.334681 
0.33376 
0.332841 
0.331925 
0.33101 
0.330098 
0.329196 
0.328307 
0.327435 
0.326584 
0.325753 
0.324943 
0.324148 
0.323363 
0.322581 
0.321795 
0.320999 
0.32019 
0.319366 
0.31853 
0.317688 
0.316845 
0.31601 
0.315189 
0.314385 
0.313601 
0.312838 
0.312093 
0.311363 
0.310644 
0.309934 
0.309227 
0.308521 
0.307813 
0.307102 
0.306388 
0.305676 
0.304971 
0.304277 
0.303597 
0.302935 
0.302296 
0.301683 
0.301099 
0.300546 
0.300025 
0.299536 
0.299081 
0.298659 
0.29827 
0.297915 
0.297601 
0.297334 
0.297122 
0.296973 
0.296892 
0.29688 
0.296931 
0.297036 
0.297188 
0.297377 
0.297593 
0.297828 
0.298075 
0.298332 
0.298599 
0.298875 
0.299165 
0.299471 
0.299796 
0.300136 
0.300493 
0.300867 
0.301253 
0.301647 
0.302042 
0.302435 
0.30282 
0.303194 
0.303559 
0.303919 
0.304276 
0.30464 
0.305019 
0.305418 
0.305837 
0.306278 
0.306744 
0.307232 
0.307742 
0.308274 
0.308826 
0.309395 
0.309975 
0.310561 
0.311146 
0.311718 
0.312264 
0.312775 
0.313245 
0.313665 
0.314037 
0.314366 
0.31466 
0.314932 
0.315196 
0.31547 
0.315767 
0.3161 
0.316477 
0.3169 
0.31737 
0.317885 
0.318438 
0.319026 
0.319646 
0.320296 
0.320968 
0.321658 
0.322366 
0.32309 
0.32383 
0.324577 
0.325322 
0.326053 
0.326759 
0.327428 
0.328055 
0.328636 
0.329172 
0.329667 
0.330131 
0.330574 
0.331006 
0.331433 
0.331858 
0.332275 
0.332679 
0.333062 
0.33342 
0.333751 
0.33406 
0.334356 
0.334651 
0.33496 
0.335294 
0.335662 
0.336065 
0.336504 
0.336973 
0.337463 
0.337965 
0.338472 
0.338972 
0.339455 
0.339915 
0.340349 
0.340755 
0.341134 
0.341495 
0.341847 
0.342204 
0.34258 
0.342981 
0.343415 
0.343883 
0.34438 
0.344898 
0.345425 
0.345945 
0.346447 
0.346926 
0.347383 
0.34782 
0.348237 
0.348638 
0.349031 
0.34942 
0.349809 
0.350204 
0.350618 
0.351076 
0.351619 
0.352306 
0.353221 
0.354471 
0.356186 
0.358514 
0.361617 
0.365658 
0.370791 
0.377148 
0.384824 
0.393883 
0.404342 
0.416176 
0.429309 
0.443624 
0.458961 
0.475131 
0.491921 
0.509104 
0.526447 
0.543713 
0.560673 
0.577109 
0.592826 
0.60765 
0.621431 
0.634049 
0.645406 
0.655427 
0.664065 
0.671295 
0.677117 
0.681555 
0.68465 
0.686466 
0.687084 
0.686599 
0.685113 
0.682736 
0.679579 
0.675749 
0.671352 
0.666491 
0.661272 
0.655798 
0.650177 
0.644511 
0.638903 
0.633451 
0.62824 
0.623353 
0.618859 
0.614819 
0.611282 
0.608279 
0.605829 
0.603937 
0.602593 
0.601775 
0.601443 
0.601547 
0.602024 
0.602805 
0.603817 
0.604977 
0.606196 
0.607387 
0.608469 
0.609365 
0.610005 
0.610328 
0.61029 
0.609863 
0.609032 
0.607798 
0.606178 
0.6042 
0.601902 
0.59933 
0.596536 
0.593571 
0.590488 
0.587334 
0.584152 
0.58098 
0.577847 
0.574779 
0.571788 
0.56888 
0.566053 
0.563305 
0.560628 
0.558013 
0.555448 
0.552926 
0.550441 
0.547982 
0.545542 
0.543114 
0.540686 
0.538248 
0.535785 
0.533278 
0.530707 
0.528059 
0.525318 
0.522478 
0.519537 
0.516495 
0.51336 
0.510143 
0.50686 
0.503523 
0.500145 
0.496736 
0.493306 
0.48986 
0.486399 
0.482918 
0.479413 
0.475876 
0.472305 
0.468707 
0.465089 
0.461457 
0.457819 
0.454187 
0.45057 
0.446969 
0.443386 
0.439822 
0.436278 
0.43276 
0.429275 
0.425827 
0.422427 
0.419084 
0.415805 
0.412593 
0.409447 
0.40637 
0.403363 
0.400427 
0.397566 
0.394783 
0.392082 
0.389467 
0.386944 
0.38451 
0.382161 
0.379889 
0.377686 
0.375548 
0.373467 
0.37144 
0.369463 
0.367538 
0.365666 
0.363852 
0.362106 
0.360433 
0.358834 
0.357302 
0.355832 
0.354413 
0.353031 
0.351673 
0.350334 
0.349007 
0.347694 
0.346396 
0.345118 
0.343866 
0.342646 
0.341463 
0.340321 
0.339218 
0.338142 
0.337084 
0.336034 
0.334982 
0.333918 
0.332835 
0.331732 
0.330609 
0.329476 
0.328341 
0.327212 
0.326099 
0.325006 
0.323937 
0.32289 
0.321864 
0.320859 
0.319877 
0.318913 
0.317967 
0.317038 
0.316125 
0.315228 
0.314342 
0.313466 
0.3126 
0.311741 
0.310883 
0.310025 
0.309164 
0.308298 
0.30743 
0.306563 
0.305704 
0.304856 
0.304024 
0.303209 
0.30241 
0.301626 
0.300858 
0.3001 
0.299352 
0.298612 
0.297884 
0.297173 
0.296481 
0.295816 
0.295186 
0.2946 
0.294062 
0.293573 
0.293133 
0.292745 
0.292409 
0.292119 
0.291872 
0.291664 
0.291489 
0.291338 
0.291201 
0.291071 
0.290943 
0.290813 
0.290674 
0.290525 
0.290369 
0.290209 
0.29005 
0.289903 
0.289778 
0.28969 
0.289651 
0.289671 
0.28976 
0.289922 
0.290161 
0.290478 
0.290868 
0.291318 
0.291816 
0.292352 
0.292912 
0.293486 
0.294064 
0.29464 
0.295208 
0.295762 
0.296301 
0.296826 
0.29734 
0.297846 
0.29835 
0.298855 
0.299366 
0.299884 
0.300414 
0.300953 
0.301498 
0.302047 
0.302592 
0.303131 
0.30366 
0.304182 
0.304699 
0.305217 
0.305745 
0.306294 
0.306875 
0.307492 
0.308144 
0.308823 
0.309519 
0.310216 
0.310896 
0.311544 
0.312147 
0.3127 
0.313201 
0.313648 
0.314046 
0.314406 
0.314735 
0.315041 
0.315332 
0.315616 
0.315902 
0.316196 
0.316503 
0.316827 
0.317169 
0.31753 
0.317903 
0.318283 
0.318664 
0.319042 
0.319419 
0.319797 
0.320184 
0.320586 
0.321016 
0.321485 
0.322003 
0.322575 
0.3232 
0.323875 
0.324591 
0.325339 
0.326105 
0.32688 
0.327659 
0.328438 
0.329214 
0.329983 
0.330739 
0.331481 
0.332209 
0.332928 
0.333637 
0.334336 
0.335025 
0.33571 
0.336389 
0.337063 
0.337728 
0.338379 
0.339016 
0.339642 
0.34026 
0.340875 
0.341484 
0.342088 
0.342685 
0.343268 
0.343826 
0.344349 
0.344828 
0.345255 
0.345629 
0.345954 
0.346235 
0.346484 
0.346712 
0.346926 
0.347139 
0.347362 
0.34761 
0.347911 
0.348304 
0.348843 
0.349605 
0.350694 
0.35224 
0.354384 
0.357286 
0.361109 
0.366006 
0.372109 
0.379516 
0.388289 
0.398438 
0.409932 
0.422691 
0.436595 
0.451491 
0.467204 
0.483539 
0.500288 
0.517236 
0.534168 
0.55087 
0.567135 
0.58277 
0.597597 
0.611459 
0.62422 
0.635766 
0.64601 
0.654891 
0.662375 
0.668455 
0.673147 
0.676486 
0.678527 
0.67934 
0.679015 
0.677653 
0.675369 
0.672282 
0.668516 
0.664193 
0.659431 
0.654344 
0.649036 
0.643607 
0.63815 
0.632746 
0.627471 
0.622401 
0.6176 
0.61313 
0.609043 
0.605385 
0.602195 
0.599493 
0.597287 
0.59557 
0.594325 
0.593518 
0.593106 
0.593027 
0.593209 
0.593575 
0.594043 
0.594532 
0.594964 
0.595272 
0.595397 
0.5953 
0.594951 
0.594339 
0.593462 
0.592329 
0.590955 
0.589356 
0.587551 
0.585564 
0.583422 
0.581153 
0.578782 
0.576338 
0.573847 
0.571337 
0.568827 
0.566334 
0.56387 
0.561439 
0.559047 
0.556698 
0.554391 
0.552125 
0.549898 
0.547707 
0.545548 
0.543414 
0.541298 
0.539185 
0.537059 
0.534899 
0.532688 
0.530408 
0.528049 
0.525603 
0.523064 
0.520429 
0.517698 
0.51487 
0.511945 
0.508923 
0.505804 
0.502588 
0.499278 
0.495881 
0.492403 
0.488854 
0.485245 
0.481591 
0.477899 
0.474179 
0.470435 
0.466673 
0.462891 
0.459089 
0.455265 
0.451424 
0.447577 
0.443736 
0.439912 
0.436119 
0.432372 
0.428692 
0.425088 
0.421567 
0.418132 
0.414782 
0.411515 
0.408325 
0.405208 
0.402166 
0.399205 
0.396332 
0.393551 
0.390868 
0.388285 
0.385801 
0.383413 
0.381112 
0.378892 
0.376744 
0.374666 
0.372657 
0.370719 
0.368851 
0.367052 
0.365317 
0.363639 
0.362007 
0.360412 
0.358848 
0.357304 
0.355777 
0.35427 
0.352788 
0.351338 
0.34992 
0.348537 
0.347188 
0.345868 
0.344574 
0.343298 
0.342031 
0.340768 
0.33951 
0.338257 
0.337012 
0.335775 
0.334551 
0.333343 
0.332155 
0.330988 
0.329843 
0.328723 
0.327629 
0.326559 
0.325512 
0.324488 
0.323484 
0.322494 
0.321511 
0.320533 
0.319556 
0.318578 
0.317597 
0.316619 
0.315651 
0.3147 
0.313776 
0.312886 
0.312033 
0.311216 
0.310437 
0.309688 
0.30896 
0.308242 
0.307524 
0.306798 
0.306062 
0.305313 
0.304551 
0.303778 
0.303 
0.302222 
0.301449 
0.300687 
0.299938 
0.299202 
0.298481 
0.297783 
0.297116 
0.296486 
0.295901 
0.295375 
0.294916 
0.294528 
0.294213 
0.293971 
0.293797 
0.293682 
0.293617 
0.293587 
0.293579 
0.293584 
0.293591 
0.293592 
0.293579 
0.293548 
0.293495 
0.29342 
0.293328 
0.293222 
0.293113 
0.293015 
0.292938 
0.292893 
0.292889 
0.292934 
0.293033 
0.29319 
0.293403 
0.293666 
0.293974 
0.294323 
0.294707 
0.295125 
0.295576 
0.296056 
0.29656 
0.297082 
0.297611 
0.298134 
0.298641 
0.299126 
0.299588 
0.300031 
0.300464 
0.300902 
0.30136 
0.301847 
0.302372 
0.302935 
0.303534 
0.304157 
0.304786 
0.305404 
0.305994 
0.306541 
0.307033 
0.307466 
0.307844 
0.308181 
0.308493 
0.308796 
0.309104 
0.309429 
0.309783 
0.310171 
0.310595 
0.311052 
0.311536 
0.312041 
0.312563 
0.3131 
0.313649 
0.31421 
0.314776 
0.315345 
0.31591 
0.316468 
0.317012 
0.317541 
0.318058 
0.318562 
0.319053 
0.319538 
0.32002 
0.3205 
0.320974 
0.321442 
0.321903 
0.322359 
0.322814 
0.323272 
0.323736 
0.324207 
0.324691 
0.32519 
0.325708 
0.32624 
0.326779 
0.327319 
0.327854 
0.328381 
0.328905 
0.329433 
0.329972 
0.330532 
0.331122 
0.331746 
0.332404 
0.333088 
0.333785 
0.334481 
0.335165 
0.335825 
0.336455 
0.337055 
0.337628 
0.338179 
0.338723 
0.339271 
0.339836 
0.340425 
0.34104 
0.341681 
0.342346 
0.34303 
0.343726 
0.344423 
0.345112 
0.345781 
0.346423 
0.347034 
0.347611 
0.348152 
0.348659 
0.349136 
0.349589 
0.350026 
0.350464 
0.350924 
0.351443 
0.352072 
0.352892 
0.354003 
0.355534 
0.357632 
0.360465 
0.3642 
0.369003 
0.375021 
0.382376 
0.391149 
0.401376 
0.413047 
0.426105 
0.440453 
0.455949 
0.472415 
0.489646 
0.50742 
0.525499 
0.543643 
0.561614 
0.579179 
0.59612 
0.612239 
0.627365 
0.64135 
0.654079 
0.665461 
0.675433 
0.683954 
0.691006 
0.69659 
0.700725 
0.703447 
0.704811 
0.704891 
0.703779 
0.701586 
0.698441 
0.694485 
0.689867 
0.684743 
0.679265 
0.67358 
0.667824 
0.662119 
0.656568 
0.651262 
0.646276 
0.641684 
0.637543 
0.633906 
0.630814 
0.6283 
0.626385 
0.625074 
0.624367 
0.624248 
0.624683 
0.625622 
0.627 
0.628741 
0.630751 
0.63293 
0.63517 
0.637358 
0.639386 
0.641155 
0.642573 
0.643562 
0.644062 
0.644031 
0.643447 
0.64231 
0.64063 
0.638434 
0.635754 
0.632636 
0.629128 
0.625283 
0.621158 
0.61681 
0.612297 
0.607681 
0.603026 
0.598388 
0.59382 
0.589363 
0.585051 
0.580909 
0.57695 
0.573174 
0.569573 
0.566137 
0.56285 
0.559691 
0.55664 
0.553677 
0.550785 
0.54795 
0.545159 
0.542401 
0.539668 
0.536943 
0.534213 
0.531463 
0.528679 
0.525847 
0.522958 
0.520001 
0.516969 
0.513854 
0.510652 
0.507358 
0.50397 
0.500491 
0.496919 
0.493256 
0.489504 
0.485674 
0.481778 
0.47783 
0.473844 
0.469835 
0.465816 
0.461798 
0.457786 
0.453786 
0.4498 
0.445832 
0.441884 
0.437958 
0.434055 
0.430178 
0.426331 
0.422517 
0.418743 
0.415017 
0.41135 
0.407743 
0.404201 
0.400725 
0.397317 
0.393978 
0.390707 
0.387505 
0.384372 
0.381313 
0.37833 
0.375431 
0.372622 
0.369908 
0.367295 
0.364785 
0.362378 
0.360066 
0.357839 
0.355685 
0.353595 
0.351557 
0.349561 
0.3476 
0.345673 
0.34378 
0.34193 
0.340131 
0.338391 
0.336713 
0.335097 
0.333541 
0.33204 
0.330585 
0.329163 
0.327761 
0.326367 
0.324971 
0.323564 
0.32214 
0.320698 
0.319239 
0.317769 
0.316293 
0.314819 
0.313358 
0.311925 
0.310534 
0.309192 
0.307907 
0.306681 
0.305512 
0.304393 
0.303314 
0.302263 
0.301229 
0.300198 
0.299164 
0.298122 
0.297068 
0.296002 
0.294924 
0.293837 
0.29274 
0.291638 
0.290538 
0.289446 
0.288369 
0.287311 
0.28628 
0.285283 
0.284325 
0.283407 
0.282525 
0.281675 
0.280852 
0.280053 
0.279278 
0.278524 
0.277793 
0.277082 
0.276394 
0.275729 
0.275088 
0.274474 
0.273891 
0.273342 
0.272827 
0.27235 
0.271911 
0.271515 
0.271164 
0.270856 
0.270591 
0.270371 
0.270191 
0.270052 
0.269952 
0.269888 
0.269861 
0.269876 
0.269936 
0.270045 
0.270204 
0.270412 
0.270669 
0.270973 
0.271318 
0.271695 
0.272098 
0.27252 
0.272955 
0.273396 
0.273838 
0.274275 
0.27471 
0.275144 
0.275579 
0.276012 
0.276443 
0.276871 
0.277293 
0.277713 
0.278132 
0.278555 
0.278988 
0.279436 
0.279902 
0.280389 
0.280898 
0.281431 
0.281984 
0.282553 
0.283129 
0.283707 
0.284283 
0.284852 
0.285409 
0.285955 
0.286496 
0.287035 
0.287575 
0.288123 
0.288684 
0.28926 
0.289852 
0.290461 
0.291087 
0.29173 
0.292389 
0.293063 
0.293757 
0.294477 
0.295228 
0.296017 
0.296853 
0.29774 
0.298682 
0.299678 
0.300726 
0.301821 
0.302951 
0.304106 
0.305274 
0.306445 
0.307603 
0.308737 
0.309838 
0.310897 
0.311909 
0.312873 
0.313794 
0.314672 
0.315503 
0.316287 
0.317022 
0.317709 
0.318346 
0.318938 
0.319487 
0.320001 
0.32049 
0.32097 
0.321457 
0.321973 
0.322532 
0.323142 
0.323811 
0.32454 
0.325326 
0.326159 
0.327025 
0.327913 
0.328814 
0.32972 
0.330622 
0.331513 
0.332389 
0.333247 
0.33409 
0.334917 
0.335729 
0.336531 
0.337327 
0.338119 
0.338908 
0.339701 
0.340501 
0.341309 
0.342126 
0.342946 
0.343769 
0.344589 
0.3454 
0.346198 
0.34698 
0.347742 
0.348479 
0.349191 
0.34988 
0.350549 
0.351198 
0.351827 
0.352434 
0.35302 
0.353587 
0.354136 
0.354675 
0.355225 
0.355817 
0.356498 
0.357337 
0.358426 
0.359878 
0.361824 
0.364406 
0.367771 
0.372066 
0.37742 
0.383941 
0.391715 
0.40079 
0.411176 
0.422846 
0.43573 
0.44972 
0.464671 
0.48041 
0.496738 
0.513439 
0.530287 
0.547058 
0.563532 
0.579503 
0.59478 
0.609193 
0.622594 
0.634866 
0.645922 
0.655697 
0.66415 
0.671266 
0.677047 
0.681515 
0.684711 
0.686687 
0.687508 
0.687246 
0.685987 
0.683823 
0.680852 
0.677174 
0.672888 
0.668095 
0.662898 
0.657401 
0.651699 
0.645891 
0.640073 
0.634334 
0.628756 
0.623412 
0.618364 
0.613664 
0.609355 
0.605464 
0.60201 
0.599003 
0.596438 
0.5943 
0.592563 
0.59119 
0.590139 
0.589356 
0.588786 
0.588373 
0.588058 
0.587784 
0.587501 
0.587163 
0.586729 
0.586163 
0.585442 
0.584553 
0.583487 
0.582245 
0.580842 
0.579294 
0.577631 
0.575879 
0.574065 
0.572213 
0.570345 
0.568477 
0.566619 
0.564777 
0.562953 
0.56114 
0.55933 
0.557518 
0.555698 
0.55386 
0.551997 
0.550102 
0.548165 
0.546179 
0.544142 
0.542052 
0.539911 
0.537715 
0.535463 
0.533154 
0.530786 
0.528355 
0.525855 
0.523276 
0.52061 
0.517846 
0.514979 
0.512004 
0.508919 
0.505727 
0.502435 
0.499054 
0.495595 
0.492068 
0.488485 
0.484855 
0.481187 
0.477483 
0.473744 
0.469972 
0.466163 
0.462318 
0.458437 
0.454522 
0.450579 
0.446619 
0.442652 
0.438692 
0.434757 
0.430868 
0.427047 
0.423308 
0.41966 
0.416115 
0.412679 
0.409355 
0.406141 
0.403037 
0.400042 
0.397153 
0.394372 
0.3917 
0.389137 
0.38668 
0.384329 
0.38208 
0.379924 
0.377852 
0.375855 
0.373924 
0.372052 
0.370236 
0.368469 
0.366749 
0.365073 
0.363443 
0.361862 
0.360332 
0.358857 
0.357439 
0.35608 
0.354777 
0.353529 
0.352332 
0.351183 
0.35008 
0.349019 
0.347998 
0.347014 
0.346064 
0.345147 
0.344258 
0.343389 
0.342528 
0.34166 
0.340767 
0.339837 
0.338857 
0.33782 
0.33672 
0.335558 
0.334341 
0.333075 
0.331765 
0.330419 
0.329051 
0.327669 
0.326285 
0.324911 
0.323556 
0.322233 
0.320949 
0.319716 
0.318537 
0.31741 
0.316333 
0.315297 
0.314294 
0.313314 
0.312352 
0.31141 
0.310491 
0.3096 
0.308746 
0.307938 
0.307184 
0.306492 
0.305862 
0.305288 
0.304765 
0.304283 
0.30383 
0.303396 
0.302972 
0.302549 
0.302119 
0.301683 
0.301243 
0.3008 
0.300361 
0.299932 
0.29952 
0.299129 
0.298763 
0.298422 
0.298106 
0.297813 
0.297548 
0.297314 
0.297119 
0.296972 
0.296884 
0.296862 
0.296907 
0.297021 
0.297203 
0.297448 
0.297752 
0.298105 
0.298498 
0.298923 
0.299372 
0.29984 
0.300323 
0.300821 
0.301335 
0.301864 
0.302404 
0.30295 
0.303493 
0.304029 
0.304551 
0.305054 
0.305536 
0.306002 
0.306458 
0.306911 
0.307364 
0.307824 
0.308299 
0.308792 
0.309309 
0.309848 
0.310405 
0.310973 
0.311547 
0.312123 
0.312695 
0.313255 
0.313798 
0.314321 
0.314818 
0.315289 
0.315733 
0.316153 
0.316557 
0.316957 
0.317364 
0.317788 
0.318235 
0.318708 
0.31921 
0.319735 
0.320283 
0.32085 
0.321434 
0.322029 
0.32263 
0.32323 
0.323818 
0.324386 
0.324928 
0.32544 
0.325919 
0.326367 
0.326785 
0.327177 
0.327553 
0.32792 
0.328283 
0.328645 
0.329007 
0.329368 
0.329727 
0.330084 
0.33044 
0.330803 
0.33118 
0.331575 
0.331996 
0.332445 
0.33292 
0.333414 
0.333914 
0.334406 
0.334879 
0.335325 
0.335745 
0.336149 
0.336549 
0.336958 
0.337391 
0.337857 
0.338358 
0.33889 
0.339447 
0.340025 
0.34063 
0.341286 
0.342038 
0.342957 
0.344139 
0.345709 
0.347811 
0.350607 
0.354257 
0.358916 
0.364717 
0.371768 
0.380134 
0.389841 
0.400872 
0.413159 
0.426599 
0.441052 
0.456345 
0.472283 
0.488653 
0.505238 
0.521813 
0.538159 
0.554064 
0.569328 
0.583768 
0.597221 
0.609553 
0.620657 
0.630453 
0.638887 
0.645937 
0.651611 
0.655938 
0.658966 
0.660763 
0.6614 
0.660959 
0.659534 
0.657225 
0.654136 
0.650375 
0.646056 
0.641294 
0.6362 
0.630884 
0.625447 
0.619985 
0.614587 
0.609333 
0.604292 
0.599527 
0.595092 
0.591027 
0.587363 
0.584121 
0.581312 
0.578938 
0.576984 
0.575422 
0.574214 
0.573313 
0.572663 
0.572206 
0.571883 
0.571637 
0.571408 
0.571141 
0.57079 
0.570317 
0.569695 
0.568906 
0.567945 
0.566813 
0.565524 
0.564093 
0.562542 
0.560893 
0.559166 
0.557382 
0.555559 
0.553712 
0.55185 
0.54998 
0.548101 
0.546215 
0.544329 
0.542448 
0.540579 
0.538728 
0.536902 
0.535107 
0.533344 
0.531611 
0.529898 
0.528195 
0.526489 
0.524765 
0.523009 
0.521207 
0.519346 
0.517412 
0.515389 
0.513267 
0.511035 
0.508686 
0.506213 
0.503608 
0.500871 
0.498004 
0.495017 
0.491923 
0.488735 
0.485468 
0.48213 
0.478721 
0.475241 
0.471689 
0.468068 
0.46438 
0.460627 
0.456819 
0.452974 
0.449114 
0.445262 
0.441438 
0.43766 
0.433945 
0.430302 
0.426737 
0.423252 
0.419849 
0.416529 
0.413293 
0.410146 
0.407101 
0.404168 
0.401354 
0.398665 
0.3961 
0.393653 
0.391318 
0.389081 
0.386927 
0.384842 
0.382812 
0.380826 
0.378877 
0.376957 
0.375062 
0.373192 
0.371347 
0.369531 
0.367747 
0.365998 
0.364283 
0.362599 
0.360949 
0.35933 
0.35774 
0.356176 
0.354637 
0.353125 
0.351646 
0.350208 
0.34882 
0.347489 
0.346223 
0.345032 
0.343919 
0.342881 
0.341911 
0.341001 
0.340137 
0.339308 
0.338499 
0.337693 
0.336882 
0.336053 
0.3352 
0.334318 
0.333408 
0.332474 
0.33152 
0.330545 
0.329548 
0.328534 
0.327508 
0.326478 
0.325448 
0.324424 
0.323406 
0.322395 
0.321396 
0.320408 
0.319434 
0.318473 
0.31753 
0.316604 
0.315698 
0.314816 
0.313963 
0.313141 
0.312352 
0.311602 
0.31089 
0.310215 
0.309572 
0.308955 
0.308355 
0.30777 
0.307192 
0.306615 
0.306039 
0.305464 
0.304896 
0.304347 
0.303828 
0.303349 
0.302922 
0.30255 
0.302234 
0.301969 
0.301749 
0.30156 
0.30139 
0.301222 
0.301043 
0.300838 
0.300599 
0.300324 
0.300019 
0.29969 
0.299348 
0.299006 
0.29868 
0.298385 
0.29813 
0.297926 
0.297782 
0.297705 
0.297701 
0.297772 
0.29791 
0.298107 
0.298353 
0.298631 
0.298925 
0.299219 
0.299502 
0.299764 
0.299997 
0.300197 
0.300365 
0.300508 
0.300637 
0.300765 
0.300902 
0.301063 
0.30126 
0.301502 
0.301795 
0.302139 
0.302529 
0.302955 
0.303404 
0.303863 
0.304322 
0.304771 
0.305203 
0.305613 
0.306004 
0.306384 
0.306762 
0.307148 
0.307552 
0.307987 
0.308458 
0.308965 
0.309511 
0.310096 
0.310713 
0.31136 
0.312029 
0.312714 
0.313403 
0.314088 
0.314759 
0.31541 
0.316037 
0.316637 
0.31721 
0.317759 
0.318294 
0.318831 
0.31938 
0.319949 
0.320544 
0.321172 
0.321834 
0.322524 
0.323232 
0.323948 
0.324662 
0.325361 
0.326035 
0.326677 
0.32729 
0.327878 
0.328448 
0.329008 
0.329566 
0.33013 
0.33071 
0.331308 
0.33192 
0.332545 
0.333184 
0.333838 
0.334509 
0.3352 
0.335913 
0.33665 
0.337413 
0.338198 
0.338997 
0.339806 
0.340617 
0.341421 
0.342204 
0.342957 
0.343674 
0.344356 
0.345004 
0.345625 
0.346226 
0.346819 
0.347413 
0.348011 
0.348618 
0.349235 
0.349863 
0.350503 
0.351153 
0.351808 
0.352467 
0.353131 
0.353799 
0.354474 
0.355151 
0.355824 
0.356488 
0.357147 
0.357814 
0.35852 
0.35932 
0.360302 
0.361587 
0.363333 
0.365721 
0.368944 
0.373198 
0.378665 
0.385497 
0.393813 
0.403681 
0.415119 
0.428091 
0.442506 
0.458228 
0.47508 
0.492855 
0.511323 
0.530235 
0.549334 
0.568364 
0.587076 
0.605233 
0.622609 
0.639001 
0.654232 
0.668153 
0.680642 
0.69161 
0.701001 
0.708788 
0.714974 
0.719595 
0.722707 
0.724391 
0.724742 
0.723874 
0.721911 
0.718981 
0.715214 
0.710742 
0.705703 
0.700232 
0.694463 
0.688526 
0.682547 
0.676644 
0.670925 
0.665497 
0.660454 
0.655881 
0.651847 
0.648409 
0.64561 
0.64348 
0.642031 
0.641254 
0.641125 
0.641608 
0.642652 
0.644192 
0.646153 
0.648451 
0.650996 
0.653686 
0.65641 
0.659053 
0.661504 
0.66365 
0.665386 
0.666616 
0.667264 
0.667271 
0.666598 
0.665229 
0.663172 
0.660453 
0.657118 
0.653222 
0.648835 
0.644034 
0.6389 
0.633513 
0.627946 
0.622267 
0.61654 
0.610826 
0.605179 
0.59965 
0.594282 
0.58911 
0.58416 
0.579451 
0.574999 
0.570805 
0.566865 
0.563167 
0.559692 
0.556415 
0.553309 
0.550345 
0.547492 
0.54472 
0.541999 
0.539298 
0.536586 
0.533839 
0.531041 
0.528181 
0.525248 
0.522242 
0.519161 
0.516004 
0.512765 
0.509433 
0.505996 
0.502447 
0.498781 
0.494994 
0.491088 
0.487064 
0.482937 
0.478727 
0.474452 
0.470131 
0.465783 
0.461427 
0.457081 
0.452757 
0.448464 
0.444209 
0.44 
0.435841 
0.431733 
0.427681 
0.423696 
0.419785 
0.415962 
0.412234 
0.408612 
0.4051 
0.401696 
0.398394 
0.395187 
0.392067 
0.389022 
0.386043 
0.383122 
0.380256 
0.377442 
0.374683 
0.371981 
0.369339 
0.36676 
0.364243 
0.36179 
0.359397 
0.357056 
0.354761 
0.352506 
0.350282 
0.348088 
0.345925 
0.343799 
0.341717 
0.339689 
0.33773 
0.335845 
0.334038 
0.332306 
0.330638 
0.329022 
0.327441 
0.325884 
0.324338 
0.322798 
0.321262 
0.319733 
0.318212 
0.316709 
0.315234 
0.313794 
0.312392 
0.311028 
0.309698 
0.308396 
0.307118 
0.30586 
0.304616 
0.303381 
0.302146 
0.30091 
0.299677 
0.298448 
0.297227 
0.296018 
0.294825 
0.293652 
0.292504 
0.291388 
0.290308 
0.289263 
0.288253 
0.28727 
0.286306 
0.285351 
0.284395 
0.283431 
0.282458 
0.281473 
0.280478 
0.279479 
0.278481 
0.277491 
0.276513 
0.275552 
0.274616 
0.273709 
0.272835 
0.271999 
0.271208 
0.270468 
0.269787 
0.269166 
0.268603 
0.268095 
0.267635 
0.267216 
0.266835 
0.266489 
0.266177 
0.265895 
0.265643 
0.265423 
0.265234 
0.265076 
0.264946 
0.264841 
0.264765 
0.264717 
0.2647 
0.26471 
0.264744 
0.264801 
0.264883 
0.26499 
0.265121 
0.265276 
0.265456 
0.265665 
0.265903 
0.266175 
0.266479 
0.266813 
0.267173 
0.267554 
0.267951 
0.268359 
0.268774 
0.269194 
0.269617 
0.270043 
0.270472 
0.270906 
0.271348 
0.271797 
0.272256 
0.272729 
0.273218 
0.273725 
0.274247 
0.274781 
0.275327 
0.275883 
0.276443 
0.277001 
0.277554 
0.278106 
0.27866 
0.279221 
0.27979 
0.280372 
0.280972 
0.281593 
0.282239 
0.282909 
0.283599 
0.284309 
0.285037 
0.28578 
0.286534 
0.287297 
0.288061 
0.288822 
0.289577 
0.290324 
0.291063 
0.291794 
0.292515 
0.293229 
0.293939 
0.29465 
0.295367 
0.296091 
0.296827 
0.297574 
0.298333 
0.2991 
0.299872 
0.300646 
0.301422 
0.302198 
0.302973 
0.303745 
0.304512 
0.305278 
0.306044 
0.306814 
0.307594 
0.30839 
0.309208 
0.31005 
0.310915 
0.311799 
0.3127 
0.313614 
0.314538 
0.315469 
0.316406 
0.317343 
0.318275 
0.319196 
0.320099 
0.32098 
0.321835 
0.322666 
0.323474 
0.32426 
0.325025 
0.325776 
0.326514 
0.327239 
0.327953 
0.328655 
0.329347 
0.330029 
0.330704 
0.331373 
0.332039 
0.332706 
0.33338 
0.334062 
0.334758 
0.335471 
0.336204 
0.336963 
0.337753 
0.33858 
0.339444 
0.340337 
0.341253 
0.342182 
0.343107 
0.344018 
0.344907 
0.345768 
0.346595 
0.347384 
0.348132 
0.348841 
0.34951 
0.350143 
0.350743 
0.351312 
0.351855 
0.35238 
0.352906 
0.353463 
0.354106 
0.354912 
0.355985 
0.357452 
0.359466 
0.362194 
0.365809 
0.370474 
0.376335 
0.383506 
0.392066 
0.402049 
0.413443 
0.426184 
0.440168 
0.455251 
0.471263 
0.488003 
0.505255 
0.522786 
0.540366 
0.557767 
0.574768 
0.59116 
0.60675 
0.621364 
0.634854 
0.647097 
0.658003 
0.667507 
0.675569 
0.682172 
0.687326 
0.691065 
0.693442 
0.694527 
0.694399 
0.693153 
0.690894 
0.687734 
0.683792 
0.67919 
0.674042 
0.668458 
0.662542 
0.656395 
0.650108 
0.643773 
0.637474 
0.631297 
0.625319 
0.619617 
0.614261 
0.60932 
0.60485 
0.600896 
0.597485 
0.594628 
0.592315 
0.590521 
0.589204 
0.588303 
0.58775 
0.587471 
0.587395 
0.587447 
0.587561 
0.58768 
0.587755 
0.587741 
0.587606 
0.587323 
0.586875 
0.586257 
0.585464 
0.584505 
0.58339 
0.582135 
0.580756 
0.579267 
0.57768 
0.576008 
0.574262 
0.572451 
0.570584 
0.568672 
0.566728 
0.564763 
0.562787 
0.560807 
0.558829 
0.556848 
0.554859 
0.552854 
0.550823 
0.548752 
0.54663 
0.544448 
0.542198 
0.539875 
0.537476 
0.535006 
0.532468 
0.529868 
0.527211 
0.524502 
0.521745 
0.518938 
0.516081 
0.513171 
0.5102 
0.507159 
0.50404 
0.500834 
0.497532 
0.49413 
0.490626 
0.487025 
0.483333 
0.479567 
0.475742 
0.471877 
0.467996 
0.46412 
0.460266 
0.456448 
0.452679 
0.448965 
0.44531 
0.441715 
0.438182 
0.434715 
0.431318 
0.427993 
0.424741 
0.421563 
0.41846 
0.415433 
0.412478 
0.409593 
0.406772 
0.404008 
0.401295 
0.398632 
0.396019 
0.393463 
0.390967 
0.388539 
0.386187 
0.383915 
0.381725 
0.379617 
0.377589 
0.37564 
0.373765 
0.371964 
0.370237 
0.368587 
0.367014 
0.365517 
0.364093 
0.362739 
0.361448 
0.360212 
0.359023 
0.357873 
0.356753 
0.355655 
0.354572 
0.353496 
0.352422 
0.351344 
0.350258 
0.349162 
0.34806 
0.346953 
0.345843 
0.344736 
0.343634 
0.342538 
0.341448 
0.340366 
0.339293 
0.338223 
0.337154 
0.336082 
0.335006 
0.33393 
0.332861 
0.331809 
0.330781 
0.329782 
0.328815 
0.327877 
0.326961 
0.326058 
0.325155 
0.324242 
0.32331 
0.322357 
0.321386 
0.320404 
0.319421 
0.318448 
0.317495 
0.316564 
0.315656 
0.31477 
0.313907 
0.313069 
0.312255 
0.311468 
0.310714 
0.309997 
0.309326 
0.308706 
0.308142 
0.307638 
0.307194 
0.306811 
0.306487 
0.306221 
0.306007 
0.305836 
0.305704 
0.305603 
0.305527 
0.305465 
0.305409 
0.305357 
0.305304 
0.305245 
0.305178 
0.305099 
0.305011 
0.304916 
0.304821 
0.304735 
0.304658 
0.304598 
0.304559 
0.304546 
0.304561 
0.304601 
0.304664 
0.304746 
0.304844 
0.304961 
0.305099 
0.305262 
0.305451 
0.305666 
0.305908 
0.306174 
0.306458 
0.30675 
0.307045 
0.307338 
0.30762 
0.307889 
0.308148 
0.308399 
0.308644 
0.308896 
0.309168 
0.309468 
0.309803 
0.310177 
0.310586 
0.311026 
0.311487 
0.311952 
0.312407 
0.312843 
0.313253 
0.313642 
0.314013 
0.314373 
0.314734 
0.315108 
0.315507 
0.315937 
0.3164 
0.316897 
0.317425 
0.317976 
0.31854 
0.31911 
0.319676 
0.32023 
0.320763 
0.321265 
0.321732 
0.322161 
0.322549 
0.322902 
0.323231 
0.323548 
0.323864 
0.324186 
0.324524 
0.324886 
0.325275 
0.325691 
0.326131 
0.326591 
0.327064 
0.327548 
0.328042 
0.328544 
0.329052 
0.329565 
0.330084 
0.330606 
0.331131 
0.331662 
0.332201 
0.332751 
0.333317 
0.333902 
0.33451 
0.335144 
0.335799 
0.336468 
0.33714 
0.337804 
0.338451 
0.339074 
0.339668 
0.340237 
0.340789 
0.341331 
0.341871 
0.342421 
0.34299 
0.343586 
0.344211 
0.344861 
0.345531 
0.346212 
0.346896 
0.347574 
0.348236 
0.348869 
0.349466 
0.350018 
0.350523 
0.350985 
0.351414 
0.351823 
0.352224 
0.352629 
0.353042 
0.353464 
0.353889 
0.354311 
0.354727 
0.355141 
0.355566 
0.356035 
0.356603 
0.357349 
0.358381 
0.359829 
0.361846 
0.364597 
0.368257 
0.372992 
0.37895 
0.386255 
0.394997 
0.405223 
0.416932 
0.430074 
0.444548 
0.460209 
0.476868 
0.494301 
0.512263 
0.530495 
0.548732 
0.566717 
0.584204 
0.600972 
0.616823 
0.631587 
0.645126 
0.657331 
0.668113 
0.677413 
0.685196 
0.691457 
0.696217 
0.699517 
0.701423 
0.702015 
0.701394 
0.699675 
0.696979 
0.693437 
0.689175 
0.684317 
0.678987 
0.673307 
0.667397 
0.661372 
0.655341 
0.649407 
0.643662 
0.638185 
0.63305 
0.628316 
0.624034 
0.620246 
0.616984 
0.614272 
0.612124 
0.610541 
0.609515 
0.609022 
0.609023 
0.609468 
0.610294 
0.611427 
0.612781 
0.614263 
0.615775 
0.61722 
0.618509 
0.619556 
0.620286 
0.620639 
0.620576 
0.620072 
0.619116 
0.617711 
0.615876 
0.613641 
0.611042 
0.608121 
0.604925 
0.601501 
0.597895 
0.594152 
0.590315 
0.58642 
0.582505 
0.578603 
0.574743 
0.570946 
0.567229 
0.563602 
0.560071 
0.556643 
0.553318 
0.550099 
0.546985 
0.543972 
0.541052 
0.538214 
0.535442 
0.53272 
0.530028 
0.527349 
0.52466 
0.521938 
0.519163 
0.516319 
0.513394 
0.510379 
0.507274 
0.504083 
0.500815 
0.497477 
0.494074 
0.490613 
0.487098 
0.483533 
0.479923 
0.476271 
0.472578 
0.468851 
0.465096 
0.461321 
0.457537 
0.453751 
0.449973 
0.446212 
0.442473 
0.438758 
0.435066 
0.431398 
0.427756 
0.424145 
0.420575 
0.417054 
0.413594 
0.410206 
0.4069 
0.403686 
0.400564 
0.397528 
0.394566 
0.391663 
0.388813 
0.386012 
0.383263 
0.380571 
0.377947 
0.375407 
0.37296 
0.370617 
0.368382 
0.366255 
0.364228 
0.362292 
0.360434 
0.358641 
0.356902 
0.355202 
0.353535 
0.351897 
0.350286 
0.3487 
0.347137 
0.345599 
0.344086 
0.342597 
0.341134 
0.339695 
0.338278 
0.336882 
0.335512 
0.33417 
0.332857 
0.331574 
0.330318 
0.329091 
0.327891 
0.326718 
0.325572 
0.324446 
0.323332 
0.322226 
0.321124 
0.320024 
0.318924 
0.317821 
0.316716 
0.315616 
0.31453 
0.313462 
0.312414 
0.311391 
0.310396 
0.309426 
0.308478 
0.307544 
0.30662 
0.305701 
0.304784 
0.303864 
0.302942 
0.302019 
0.301105 
0.300207 
0.299331 
0.298477 
0.297644 
0.296829 
0.29603 
0.295244 
0.294468 
0.2937 
0.292942 
0.292194 
0.291461 
0.290756 
0.290089 
0.289472 
0.288915 
0.28842 
0.287989 
0.287617 
0.287292 
0.287002 
0.286735 
0.286482 
0.286231 
0.285975 
0.285714 
0.285448 
0.285181 
0.284916 
0.28466 
0.284421 
0.284201 
0.284005 
0.283835 
0.283694 
0.283583 
0.283505 
0.283463 
0.283461 
0.2835 
0.283577 
0.283689 
0.283831 
0.283999 
0.28419 
0.284405 
0.284647 
0.284921 
0.28523 
0.285578 
0.28597 
0.286403 
0.28687 
0.287364 
0.287876 
0.288394 
0.288909 
0.28942 
0.289925 
0.290423 
0.290916 
0.291413 
0.291919 
0.292442 
0.292987 
0.293562 
0.29417 
0.29481 
0.295482 
0.296181 
0.2969 
0.297631 
0.298363 
0.299092 
0.299811 
0.300518 
0.301211 
0.301889 
0.302553 
0.303203 
0.303838 
0.304457 
0.30506 
0.30565 
0.306226 
0.306788 
0.307337 
0.307869 
0.308383 
0.308877 
0.309349 
0.309797 
0.310222 
0.310626 
0.311015 
0.311389 
0.311754 
0.312122 
0.312499 
0.312895 
0.313318 
0.313772 
0.314263 
0.314791 
0.315355 
0.315946 
0.316558 
0.317181 
0.317809 
0.318433 
0.319047 
0.319646 
0.320231 
0.320801 
0.321356 
0.321897 
0.322429 
0.322958 
0.323491 
0.324034 
0.324596 
0.325186 
0.325812 
0.326479 
0.327189 
0.327941 
0.328731 
0.329556 
0.330413 
0.331298 
0.332199 
0.333108 
0.334016 
0.334914 
0.335793 
0.336648 
0.337475 
0.338271 
0.339036 
0.339773 
0.340487 
0.341181 
0.341855 
0.342508 
0.343137 
0.343744 
0.344331 
0.344897 
0.345445 
0.34598 
0.346504 
0.347017 
0.34752 
0.348011 
0.348484 
0.348931 
0.349346 
0.349723 
0.350064 
0.350374 
0.350667 
0.350968 
0.351322 
0.351796 
0.352482 
0.353492 
0.354958 
0.35703 
0.359873 
0.363648 
0.368505 
0.374576 
0.381961 
0.390721 
0.400873 
0.412394 
0.425217 
0.439233 
0.454296 
0.47023 
0.486835 
0.503895 
0.521182 
0.538467 
0.555518 
0.572114 
0.588049 
0.603136 
0.617209 
0.630126 
0.641769 
0.652042 
0.660879 
0.668241 
0.674112 
0.678502 
0.681447 
0.683005 
0.683259 
0.682313 
0.680281 
0.677291 
0.673472 
0.668951 
0.663859 
0.658318 
0.652443 
0.64634 
0.640107 
0.633837 
0.62762 
0.621537 
0.615666 
0.610079 
0.604843 
0.600015 
0.595646 
0.591779 
0.588449 
0.585673 
0.583457 
0.581792 
0.580649 
0.579987 
0.579749 
0.579867 
0.580265 
0.580862 
0.581574 
0.582319 
0.583022 
0.583615 
0.584045 
0.584271 
0.584265 
0.584012 
0.583504 
0.582748 
0.581755 
0.580536 
0.579101 
0.57746 
0.575623 
0.573602 
0.571416 
0.569084 
0.566636 
0.564106 
0.561534 
0.558951 
0.556387 
0.553866 
0.551401 
0.548995 
0.546642 
0.544331 
0.542043 
0.539758 
0.537455 
0.535112 
0.532711 
0.530241 
0.527694 
0.525067 
0.522368 
0.519613 
0.516816 
0.513994 
0.511165 
0.50834 
0.505524 
0.502713 
0.499901 
0.497075 
0.494221 
0.491327 
0.488378 
0.485363 
0.482275 
0.479112 
0.475871 
0.472553 
0.469168 
0.465729 
0.462251 
0.458744 
0.45522 
0.451689 
0.448162 
0.444647 
0.441145 
0.437659 
0.43419 
0.43074 
0.427307 
0.423895 
0.420512 
0.417168 
0.413869 
0.410628 
0.407455 
0.404362 
0.401353 
0.398431 
0.395599 
0.392854 
0.390189 
0.387599 
0.385079 
0.382627 
0.380241 
0.37792 
0.375665 
0.373481 
0.371373 
0.369347 
0.367408 
0.365555 
0.363788 
0.362103 
0.360497 
0.358966 
0.357503 
0.356098 
0.354746 
0.353444 
0.352189 
0.350979 
0.349813 
0.348693 
0.347618 
0.346591 
0.345616 
0.344692 
0.343821 
0.343003 
0.342242 
0.341534 
0.340875 
0.340251 
0.339652 
0.339058 
0.338451 
0.337815 
0.33714 
0.33642 
0.335653 
0.334839 
0.333983 
0.333092 
0.332177 
0.33125 
0.330316 
0.329379 
0.328442 
0.327508 
0.326579 
0.325655 
0.324737 
0.323823 
0.322911 
0.322002 
0.321104 
0.320225 
0.319372 
0.318555 
0.317776 
0.317031 
0.316319 
0.315632 
0.314959 
0.314295 
0.313632 
0.312966 
0.3123 
0.311644 
0.311005 
0.310391 
0.309811 
0.309269 
0.308764 
0.308297 
0.307862 
0.307452 
0.307058 
0.306673 
0.306293 
0.305919 
0.305554 
0.305202 
0.304868 
0.304561 
0.304289 
0.304059 
0.303874 
0.303739 
0.303658 
0.303631 
0.303652 
0.303712 
0.303798 
0.303901 
0.304008 
0.304103 
0.304175 
0.304217 
0.304223 
0.304195 
0.304136 
0.304055 
0.303963 
0.303875 
0.303806 
0.303774 
0.303793 
0.303871 
0.304009 
0.304208 
0.304465 
0.304776 
0.30513 
0.305514 
0.305912 
0.306311 
0.3067 
0.30707 
0.307419 
0.307744 
0.308052 
0.308351 
0.308649 
0.308957 
0.309287 
0.309647 
0.310043 
0.310478 
0.310952 
0.311467 
0.312021 
0.312611 
0.313236 
0.313891 
0.314572 
0.315267 
0.31596 
0.316643 
0.317305 
0.317937 
0.318536 
0.319103 
0.319639 
0.32015 
0.320644 
0.321124 
0.321591 
0.322048 
0.322495 
0.322931 
0.323363 
0.323797 
0.324238 
0.324693 
0.32517 
0.325679 
0.326225 
0.326811 
0.327438 
0.328108 
0.328823 
0.329583 
0.330386 
0.33123 
0.332112 
0.333024 
0.333958 
0.334905 
0.335852 
0.336788 
0.337702 
0.33859 
0.339447 
0.340271 
0.341063 
0.341831 
0.342584 
0.343327 
0.344066 
0.344806 
0.345548 
0.346287 
0.347019 
0.347736 
0.348431 
0.349095 
0.349723 
0.350312 
0.350863 
0.351383 
0.351882 
0.352368 
0.352854 
0.35335 
0.353861 
0.354389 
0.354934 
0.355493 
0.356063 
0.356638 
0.357211 
0.357772 
0.358314 
0.358837 
0.359348 
0.359869 
0.36044 
0.361121 
0.361995 
0.363167 
0.364766 
0.366941 
0.369854 
0.373671 
0.37855 
0.384629 
0.392019 
0.400788 
0.410964 
0.422526 
0.435408 
0.449501 
0.464655 
0.480688 
0.497397 
0.514557 
0.531936 
0.549298 
0.566412 
0.583053 
0.599012 
0.614093 
0.628126 
0.640966 
0.652496 
0.662626 
0.671294 
0.678468 
0.684143 
0.68834 
0.691103 
0.692499 
0.692611 
0.691533 
0.689379 
0.686265 
0.682314 
0.677653 
0.672408 
0.666702 
0.660655 
0.654385 
0.648002 
0.641608 
0.635299 
0.629163 
0.623286 
0.617743 
0.612608 
0.607942 
0.603795 
0.600204 
0.59719 
0.594761 
0.592909 
0.591607 
0.590819 
0.590491 
0.590559 
0.59095 
0.591577 
0.592355 
0.593195 
0.594015 
0.59473 
0.595271 
0.595576 
0.5956 
0.595308 
0.594682 
0.593719 
0.592428 
0.590829 
0.588945 
0.586808 
0.584447 
0.581898 
0.579198 
0.576379 
0.573473 
0.570505 
0.567494 
0.564459 
0.561416 
0.558384 
0.555374 
0.552401 
0.549479 
0.546618 
0.543825 
0.541101 
0.538444 
0.535849 
0.533308 
0.530807 
0.528331 
0.525866 
0.523402 
0.52093 
0.518439 
0.51592 
0.513367 
0.51077 
0.508122 
0.505414 
0.502632 
0.499771 
0.496825 
0.493782 
0.490638 
0.487388 
0.484032 
0.480569 
0.477002 
0.473342 
0.469602 
0.4658 
0.461951 
0.458074 
0.454191 
0.450323 
0.446485 
0.442686 
0.438932 
0.435229 
0.431578 
0.427978 
0.424432 
0.420941 
0.417501 
0.414114 
0.410782 
0.407507 
0.404293 
0.401148 
0.398078 
0.395089 
0.392184 
0.38937 
0.386645 
0.384007 
0.38145 
0.378968 
0.376553 
0.3742 
0.371908 
0.369679 
0.367517 
0.365427 
0.363414 
0.361485 
0.359641 
0.35788 
0.356202 
0.354604 
0.353078 
0.351614 
0.350203 
0.348832 
0.347495 
0.346189 
0.344915 
0.343674 
0.342468 
0.341299 
0.340167 
0.339072 
0.338012 
0.336982 
0.335979 
0.334999 
0.334033 
0.333073 
0.332115 
0.331152 
0.330179 
0.329195 
0.328197 
0.327188 
0.32617 
0.325145 
0.324113 
0.323069 
0.322014 
0.320946 
0.319871 
0.318796 
0.317736 
0.316701 
0.315705 
0.314759 
0.313868 
0.313033 
0.31225 
0.311505 
0.310782 
0.310059 
0.309319 
0.308553 
0.307763 
0.306956 
0.306139 
0.305325 
0.304528 
0.303756 
0.303018 
0.302318 
0.301654 
0.301021 
0.300416 
0.299837 
0.299281 
0.298748 
0.298236 
0.297745 
0.297272 
0.296814 
0.296368 
0.295931 
0.295507 
0.295098 
0.294709 
0.294341 
0.293998 
0.29368 
0.293389 
0.293126 
0.292891 
0.292684 
0.292505 
0.292356 
0.292243 
0.292171 
0.292147 
0.292177 
0.292263 
0.292408 
0.292608 
0.292857 
0.293147 
0.293466 
0.293801 
0.294136 
0.294455 
0.294745 
0.294997 
0.295207 
0.295376 
0.295516 
0.295639 
0.295758 
0.295888 
0.296042 
0.296229 
0.296452 
0.296713 
0.297012 
0.297349 
0.29772 
0.298121 
0.298551 
0.29901 
0.299496 
0.300013 
0.30056 
0.301138 
0.301743 
0.30237 
0.303014 
0.303668 
0.304326 
0.304982 
0.305629 
0.306262 
0.306878 
0.307478 
0.308066 
0.308642 
0.309211 
0.30978 
0.310351 
0.310924 
0.3115 
0.312078 
0.312658 
0.31324 
0.313819 
0.314392 
0.314956 
0.315509 
0.316054 
0.316593 
0.317128 
0.317661 
0.318195 
0.318727 
0.319254 
0.319772 
0.320281 
0.32078 
0.32127 
0.32176 
0.322256 
0.322767 
0.323301 
0.323863 
0.324459 
0.325093 
0.325761 
0.326454 
0.327165 
0.327884 
0.328605 
0.329327 
0.330049 
0.330775 
0.331507 
0.332248 
0.333002 
0.333768 
0.334547 
0.335337 
0.336132 
0.336931 
0.337736 
0.338543 
0.33935 
0.340155 
0.34096 
0.341767 
0.342578 
0.343395 
0.344217 
0.345046 
0.345881 
0.346721 
0.347564 
0.348405 
0.34924 
0.350063 
0.350872 
0.351666 
0.352442 
0.353202 
0.353942 
0.354659 
0.35535 
0.356005 
0.356614 
0.357171 
0.357672 
0.35812 
0.358526 
0.358916 
0.359325 
0.359806 
0.360433 
0.3613 
0.362518 
0.364216 
0.366541 
0.36965 
0.373697 
0.378831 
0.385183 
0.392858 
0.40192 
0.412397 
0.424275 
0.437493 
0.451943 
0.467477 
0.483913 
0.501035 
0.518609 
0.536391 
0.554133 
0.571587 
0.588512 
0.60469 
0.619927 
0.63405 
0.646912 
0.658401 
0.668437 
0.676967 
0.683966 
0.689436 
0.693407 
0.695929 
0.697073 
0.696927 
0.695591 
0.693175 
0.689801 
0.685599 
0.680701 
0.675243 
0.669361 
0.663189 
0.656851 
0.650465 
0.64414 
0.637976 
0.632068 
0.626499 
0.621346 
0.616679 
0.612557 
0.609025 
0.606116 
0.603849 
0.602228 
0.601239 
0.600852 
0.601017 
0.601674 
0.602748 
0.604154 
0.605796 
0.607579 
0.60941 
0.611193 
0.612836 
0.614257 
0.615388 
0.616169 
0.616555 
0.616514 
0.616031 
0.615102 
0.613736 
0.611954 
0.609792 
0.607287 
0.604484 
0.601434 
0.598187 
0.594791 
0.591296 
0.587751 
0.584201 
0.580678 
0.577213 
0.573829 
0.570548 
0.567383 
0.564336 
0.561407 
0.558592 
0.555888 
0.553288 
0.550779 
0.548352 
0.545994 
0.543686 
0.541412 
0.539153 
0.536887 
0.534591 
0.532248 
0.529845 
0.527368 
0.524804 
0.522146 
0.519388 
0.516527 
0.513563 
0.510491 
0.507312 
0.50403 
0.500646 
0.497165 
0.49359 
0.489931 
0.486198 
0.482407 
0.478574 
0.474709 
0.470821 
0.466918 
0.463003 
0.45908 
0.45515 
0.451213 
0.447268 
0.443319 
0.43937 
0.435434 
0.431525 
0.427661 
0.423857 
0.420126 
0.416475 
0.412904 
0.409417 
0.406011 
0.402688 
0.399451 
0.396302 
0.393247 
0.390289 
0.387425 
0.384654 
0.38197 
0.379368 
0.376838 
0.374371 
0.371968 
0.369625 
0.367347 
0.365141 
0.363012 
0.360961 
0.358987 
0.357083 
0.355237 
0.353433 
0.351658 
0.349902 
0.348156 
0.346419 
0.344693 
0.342982 
0.341292 
0.339626 
0.337989 
0.336386 
0.334825 
0.333305 
0.33183 
0.330399 
0.329013 
0.32767 
0.326362 
0.325079 
0.323806 
0.322534 
0.321253 
0.319953 
0.318628 
0.317282 
0.315925 
0.314564 
0.313209 
0.311872 
0.310563 
0.309293 
0.30807 
0.3069 
0.305788 
0.304736 
0.303743 
0.302803 
0.301907 
0.301045 
0.300204 
0.299373 
0.298544 
0.297712 
0.296872 
0.296022 
0.295164 
0.2943 
0.293436 
0.292581 
0.291739 
0.290911 
0.290101 
0.289309 
0.288539 
0.287792 
0.287073 
0.286386 
0.285736 
0.285126 
0.284558 
0.284033 
0.283551 
0.283111 
0.282711 
0.282343 
0.282002 
0.281684 
0.281387 
0.281106 
0.280837 
0.280587 
0.280362 
0.280173 
0.280029 
0.279938 
0.279905 
0.279937 
0.280034 
0.280192 
0.280405 
0.280662 
0.280951 
0.281262 
0.28158 
0.281892 
0.28219 
0.282471 
0.282735 
0.282983 
0.283219 
0.283447 
0.283676 
0.283915 
0.28417 
0.284446 
0.28475 
0.285084 
0.285451 
0.285851 
0.286283 
0.286741 
0.287222 
0.287721 
0.288238 
0.288777 
0.289342 
0.289939 
0.290573 
0.291244 
0.291951 
0.29269 
0.293456 
0.294239 
0.295027 
0.295808 
0.296577 
0.29733 
0.298068 
0.298791 
0.299499 
0.300194 
0.300878 
0.30155 
0.302208 
0.302852 
0.303481 
0.304097 
0.304698 
0.305285 
0.305861 
0.306426 
0.306979 
0.307522 
0.308063 
0.308606 
0.309153 
0.309709 
0.310279 
0.310864 
0.311462 
0.312073 
0.312692 
0.313317 
0.313947 
0.314586 
0.315238 
0.315911 
0.31661 
0.317335 
0.318092 
0.318881 
0.319698 
0.320535 
0.321378 
0.322217 
0.323042 
0.323848 
0.32463 
0.325385 
0.326114 
0.326818 
0.327505 
0.328182 
0.328851 
0.329513 
0.330164 
0.330801 
0.331423 
0.332027 
0.332612 
0.333177 
0.333728 
0.334273 
0.33482 
0.335374 
0.33594 
0.336522 
0.337128 
0.337766 
0.33844 
0.339152 
0.339904 
0.340693 
0.341513 
0.34235 
0.343192 
0.344028 
0.344848 
0.345643 
0.346408 
0.347142 
0.347846 
0.348516 
0.349152 
0.349754 
0.350325 
0.350864 
0.351373 
0.351859 
0.352326 
0.352778 
0.353221 
0.35366 
0.354103 
0.354563 
0.35506 
0.355627 
0.356322 
0.357219 
0.358419 
0.360045 
0.362246 
0.365179 
0.369004 
0.373873 
0.379919 
0.387241 
0.395901 
0.405921 
0.417277 
0.429905 
0.443699 
0.458513 
0.474172 
0.490473 
0.507195 
0.524106 
0.540967 
0.55754 
0.573596 
0.588923 
0.60333 
0.616651 
0.628751 
0.639525 
0.648899 
0.656833 
0.663312 
0.668341 
0.671949 
0.674186 
0.675117 
0.674824 
0.673398 
0.670946 
0.667581 
0.663414 
0.658568 
0.653165 
0.647321 
0.641145 
0.634746 
0.628228 
0.621692 
0.615231 
0.608932 
0.602878 
0.597146 
0.591807 
0.586924 
0.582546 
0.57871 
0.575444 
0.572757 
0.570642 
0.569079 
0.568029 
0.567445 
0.567265 
0.567419 
0.56783 
0.568418 
0.569102 
0.569799 
0.570435 
0.570945 
0.57128 
0.571405 
0.571296 
0.570938 
0.570327 
0.569466 
0.568367 
0.567046 
0.565516 
0.563794 
0.561902 
0.559868 
0.557719 
0.555482 
0.553182 
0.550839 
0.548471 
0.546095 
0.543721 
0.541362 
0.539023 
0.536705 
0.53441 
0.532139 
0.529893 
0.52767 
0.525467 
0.523284 
0.521114 
0.518951 
0.516787 
0.514607 
0.512399 
0.510148 
0.507839 
0.505465 
0.503021 
0.500504 
0.497913 
0.495248 
0.492515 
0.489715 
0.486847 
0.483907 
0.480886 
0.477777 
0.474578 
0.471286 
0.467903 
0.464436 
0.460899 
0.457308 
0.453683 
0.450045 
0.44641 
0.442794 
0.439214 
0.435679 
0.432197 
0.428771 
0.425404 
0.422097 
0.41885 
0.415665 
0.412541 
0.409478 
0.406478 
0.403545 
0.400688 
0.397916 
0.395238 
0.392659 
0.390179 
0.387801 
0.385526 
0.38335 
0.381265 
0.379259 
0.377324 
0.375456 
0.373652 
0.371912 
0.370232 
0.368613 
0.36705 
0.365541 
0.364084 
0.362674 
0.36131 
0.359987 
0.358705 
0.35746 
0.35625 
0.355074 
0.35393 
0.352818 
0.351742 
0.350703 
0.349702 
0.348739 
0.347815 
0.346928 
0.346081 
0.345275 
0.344509 
0.343781 
0.343085 
0.342411 
0.341749 
0.341085 
0.340407 
0.339709 
0.338986 
0.338239 
0.337473 
0.336692 
0.335903 
0.335115 
0.33433 
0.333554 
0.332795 
0.33206 
0.331349 
0.330663 
0.330001 
0.329358 
0.328726 
0.328102 
0.327484 
0.326867 
0.326254 
0.325646 
0.325045 
0.32445 
0.323863 
0.323286 
0.322717 
0.32215 
0.321578 
0.320999 
0.320409 
0.319803 
0.319181 
0.318551 
0.317921 
0.317298 
0.31669 
0.316108 
0.315565 
0.315066 
0.314618 
0.314223 
0.313883 
0.313596 
0.313352 
0.313142 
0.312951 
0.312766 
0.312579 
0.312383 
0.312174 
0.311952 
0.311723 
0.311497 
0.31129 
0.311118 
0.310999 
0.31094 
0.310944 
0.311014 
0.31115 
0.311344 
0.311582 
0.311853 
0.31215 
0.312464 
0.312787 
0.31311 
0.313427 
0.313734 
0.314026 
0.314296 
0.314538 
0.314748 
0.314934 
0.315103 
0.31527 
0.315448 
0.315654 
0.315903 
0.31621 
0.316578 
0.317002 
0.317474 
0.317983 
0.318515 
0.319051 
0.319581 
0.3201 
0.320607 
0.321102 
0.321588 
0.322069 
0.322549 
0.323029 
0.323509 
0.323986 
0.324453 
0.324907 
0.325348 
0.325779 
0.326201 
0.326618 
0.327038 
0.327469 
0.327919 
0.32839 
0.328884 
0.329398 
0.329929 
0.330471 
0.331011 
0.331539 
0.332046 
0.332533 
0.332997 
0.333434 
0.333845 
0.334237 
0.33462 
0.335004 
0.335397 
0.335807 
0.336236 
0.336688 
0.337163 
0.337653 
0.338152 
0.338655 
0.339155 
0.339646 
0.340127 
0.340599 
0.341064 
0.341525 
0.341988 
0.342451 
0.342917 
0.343389 
0.343871 
0.344366 
0.34488 
0.345422 
0.345998 
0.346613 
0.347261 
0.347934 
0.348623 
0.349316 
0.349998 
0.350655 
0.351274 
0.351848 
0.352378 
0.352873 
0.353343 
0.353798 
0.35425 
0.354708 
0.355179 
0.355661 
0.356149 
0.356634 
0.357111 
0.357574 
0.358022 
0.358452 
0.358867 
0.359272 
0.359674 
0.360073 
0.360475 
0.360883 
0.361302 
0.361733 
0.362172 
0.362617 
0.363064 
0.363506 
0.363934 
0.364348 
0.364753 
0.365164 
0.365612 
0.366153 
0.366872 
0.367883 
0.369325 
0.371365 
0.374177 
0.377941 
0.382828 
0.388986 
0.396528 
0.405516 
0.415966 
0.427842 
0.441056 
0.455476 
0.47093 
0.487214 
0.504101 
0.521356 
0.538736 
0.555998 
0.572906 
0.589241 
0.604802 
0.619417 
0.632934 
0.645223 
0.656185 
0.665746 
0.673861 
0.680511 
0.685699 
0.689453 
0.691825 
0.692888 
0.692731 
0.691453 
0.689163 
0.685969 
0.681985 
0.677324 
0.672094 
0.666402 
0.660352 
0.654049 
0.647589 
0.641074 
0.6346 
0.628258 
0.622132 
0.6163 
0.610827 
0.605769 
0.601169 
0.597059 
0.593465 
0.590404 
0.587893 
0.58594 
0.584539 
0.583674 
0.583313 
0.583408 
0.583892 
0.584684 
0.585693 
0.586819 
0.587961 
0.589026 
0.589927 
0.590588 
0.590952 
0.590979 
0.590647 
0.589943 
0.588867 
0.587433 
0.585667 
0.583601 
0.581268 
0.578709 
0.575964 
0.573068 
0.570054 
0.56695 
0.563786 
0.560591 
0.557392 
0.554213 
0.551078 
0.548006 
0.545013 
0.542112 
0.539309 
0.536602 
0.533989 
0.531462 
0.529006 
0.526605 
0.524241 
0.521894 
0.519544 
0.517175 
0.514769 
0.512307 
0.509776 
0.507165 
0.504468 
0.501683 
0.498814 
0.495867 
0.492849 
0.489765 
0.486622 
0.483428 
0.480191 
0.476916 
0.47361 
0.470274 
0.466911 
0.463523 
0.46011 
0.456671 
0.453207 
0.449716 
0.446198 
0.442656 
0.439093 
0.435518 
0.431944 
0.428388 
0.424868 
0.421403 
0.418004 
0.414682 
0.411445 
0.408302 
0.405252 
0.40229 
0.399411 
0.396615 
0.393896 
0.391247 
0.388663 
0.386137 
0.383665 
0.381243 
0.378873 
0.37656 
0.37431 
0.372133 
0.37004 
0.368042 
0.366148 
0.364365 
0.362697 
0.36114 
0.359686 
0.358321 
0.357028 
0.355795 
0.354611 
0.353466 
0.352353 
0.351265 
0.350199 
0.349151 
0.348117 
0.347089 
0.346057 
0.345014 
0.343956 
0.342887 
0.341816 
0.340756 
0.33972 
0.338728 
0.337796 
0.336938 
0.336161 
0.335464 
0.334839 
0.334272 
0.333747 
0.333246 
0.332752 
0.332248 
0.331724 
0.331173 
0.330593 
0.329988 
0.329356 
0.328696 
0.328005 
0.327282 
0.326521 
0.325721 
0.324884 
0.324014 
0.323122 
0.322223 
0.321335 
0.320475 
0.319661 
0.318909 
0.318227 
0.317609 
0.317047 
0.31653 
0.316042 
0.315567 
0.315092 
0.314605 
0.314101 
0.313577 
0.313032 
0.312475 
0.311914 
0.311357 
0.31081 
0.310279 
0.309769 
0.309284 
0.308826 
0.3084 
0.30801 
0.307658 
0.307342 
0.30706 
0.30681 
0.306592 
0.306409 
0.306259 
0.30614 
0.306054 
0.305998 
0.30597 
0.30597 
0.305998 
0.306055 
0.306144 
0.306268 
0.306426 
0.306619 
0.306847 
0.307113 
0.307415 
0.307753 
0.308124 
0.308527 
0.308956 
0.309406 
0.309873 
0.310351 
0.310833 
0.311317 
0.311802 
0.31229 
0.31278 
0.313273 
0.31377 
0.314271 
0.31478 
0.315299 
0.315831 
0.316373 
0.316924 
0.31748 
0.318034 
0.318576 
0.319098 
0.319594 
0.320063 
0.320504 
0.320918 
0.321316 
0.321705 
0.322093 
0.322487 
0.32289 
0.323304 
0.323729 
0.324164 
0.32461 
0.325069 
0.325543 
0.326036 
0.326551 
0.327087 
0.327641 
0.328209 
0.328786 
0.329365 
0.329945 
0.330525 
0.331103 
0.331677 
0.332243 
0.332802 
0.333357 
0.333909 
0.334459 
0.33501 
0.33557 
0.336145 
0.336743 
0.337365 
0.33801 
0.338674 
0.339347 
0.340013 
0.340658 
0.341274 
0.341851 
0.342384 
0.342876 
0.343331 
0.343757 
0.344164 
0.34456 
0.344952 
0.345342 
0.34573 
0.346121 
0.346519 
0.346935 
0.347379 
0.347862 
0.34839 
0.348969 
0.3496 
0.350279 
0.350999 
0.351753 
0.352533 
0.353332 
0.354147 
0.354968 
0.355785 
0.356586 
0.357357 
0.358086 
0.358762 
0.359376 
0.359919 
0.360389 
0.360793 
0.361139 
0.36144 
0.361709 
0.36196 
0.362201 
0.36244 
0.36269 
0.362968 
0.363305 
0.363746 
0.364361 
0.365244 
0.366515 
0.368318 
0.370814 
0.374173 
0.378555 
0.384109 
0.390953 
0.399171 
0.408804 
0.419846 
0.43224 
0.445886 
0.460646 
0.476343 
0.49277 
0.509696 
0.526885 
0.544092 
0.561077 
0.577613 
0.593488 
0.608513 
0.622517 
0.635351 
0.646896 
0.657056 
0.66577 
0.673005 
0.678762 
0.683065 
0.685962 
0.687525 
0.687837 
0.686995 
0.685104 
0.682271 
0.678603 
0.674207 
0.669196 
0.663683 
0.65778 
0.651602 
0.645261 
0.638868 
0.632529 
0.626345 
0.620413 
0.614822 
0.609649 
0.604963 
0.600824 
0.597274 
0.594344 
0.592048 
0.590384 
0.589334 
0.588865 
0.588922 
0.589441 
0.590349 
0.591559 
0.592978 
0.594509 
0.596053 
0.597515 
0.598805 
0.599841 
0.600555 
0.600895 
0.60082 
0.60031 
0.59936 
0.59798 
0.596198 
0.594048 
0.591574 
0.588819 
0.585834 
0.582669 
0.579367 
0.575966 
0.572503 
0.569008 
0.565514 
0.56205 
0.558647 
0.555328 
0.552117 
0.549033 
0.546088 
0.543286 
0.540622 
0.538085 
0.535658 
0.533319 
0.531044 
0.528807 
0.526587 
0.524363 
0.522112 
0.519817 
0.517464 
0.515041 
0.512537 
0.509944 
0.507255 
0.504462 
0.501556 
0.498533 
0.495389 
0.492123 
0.488734 
0.485229 
0.481623 
0.477935 
0.474184 
0.470392 
0.466589 
0.462797 
0.459037 
0.455324 
0.451667 
0.448066 
0.444517 
0.441018 
0.43756 
0.434136 
0.430737 
0.427358 
0.423994 
0.42064 
0.417294 
0.413956 
0.410629 
0.407321 
0.40404 
0.400801 
0.397621 
0.39452 
0.391512 
0.388609 
0.385815 
0.383135 
0.380566 
0.378105 
0.375744 
0.373475 
0.371294 
0.369193 
0.367172 
0.365228 
0.363363 
0.361578 
0.35987 
0.358233 
0.356661 
0.355147 
0.353681 
0.352257 
0.350866 
0.349507 
0.348173 
0.346864 
0.345574 
0.344298 
0.343029 
0.341768 
0.34051 
0.339249 
0.337983 
0.336712 
0.335435 
0.334155 
0.332878 
0.331609 
0.330355 
0.32912 
0.327914 
0.326742 
0.325607 
0.324506 
0.323436 
0.322389 
0.321359 
0.320343 
0.319338 
0.318341 
0.317356 
0.316386 
0.315435 
0.314508 
0.313603 
0.312721 
0.31186 
0.311017 
0.310186 
0.309364 
0.308549 
0.307743 
0.306948 
0.306172 
0.30542 
0.3047 
0.304016 
0.303365 
0.302741 
0.302138 
0.301547 
0.300962 
0.300376 
0.299785 
0.299185 
0.298574 
0.297956 
0.297334 
0.296716 
0.296112 
0.295531 
0.294982 
0.294474 
0.294014 
0.293609 
0.293261 
0.292973 
0.29275 
0.292591 
0.29249 
0.292443 
0.292448 
0.292503 
0.292604 
0.292744 
0.292921 
0.293135 
0.293386 
0.293671 
0.293989 
0.294339 
0.294715 
0.295109 
0.295513 
0.295916 
0.296307 
0.296681 
0.297032 
0.297359 
0.297664 
0.29795 
0.298225 
0.298494 
0.298765 
0.299048 
0.299353 
0.29969 
0.300059 
0.300459 
0.300886 
0.301337 
0.301805 
0.302284 
0.302771 
0.303265 
0.303768 
0.304281 
0.304804 
0.305339 
0.305886 
0.306443 
0.307004 
0.307569 
0.308131 
0.308684 
0.309219 
0.309735 
0.310232 
0.31071 
0.311168 
0.311606 
0.312031 
0.312446 
0.312856 
0.313263 
0.313672 
0.314086 
0.314513 
0.314954 
0.315408 
0.315873 
0.316343 
0.316816 
0.317283 
0.317736 
0.318168 
0.318574 
0.318956 
0.319318 
0.319672 
0.320027 
0.320395 
0.320787 
0.321212 
0.321673 
0.322164 
0.322676 
0.323199 
0.323714 
0.324205 
0.324656 
0.325057 
0.325413 
0.325734 
0.326034 
0.326329 
0.326637 
0.326975 
0.32736 
0.3278 
0.3283 
0.328856 
0.329459 
0.330096 
0.330753 
0.331421 
0.332097 
0.332773 
0.333444 
0.334116 
0.334793 
0.33548 
0.336179 
0.336892 
0.337618 
0.338348 
0.339079 
0.339801 
0.340503 
0.341179 
0.341829 
0.342453 
0.343051 
0.343626 
0.344181 
0.344726 
0.345268 
0.345809 
0.346352 
0.3469 
0.347451 
0.347999 
0.34854 
0.349065 
0.349568 
0.350043 
0.350485 
0.350903 
0.351322 
0.35178 
0.352338 
0.353078 
0.354109 
0.355563 
0.357588 
0.360348 
0.364011 
0.368742 
0.374684 
0.381951 
0.390618 
0.400711 
0.412209 
0.425041 
0.439088 
0.454193 
0.470165 
0.486786 
0.503821 
0.521024 
0.53815 
0.554955 
0.571209 
0.5867 
0.601237 
0.614658 
0.62683 
0.637656 
0.647061 
0.655001 
0.661463 
0.666456 
0.670016 
0.672199 
0.673082 
0.672754 
0.671316 
0.668876 
0.665547 
0.661448 
0.656697 
0.651416 
0.645725 
0.639742 
0.633578 
0.627338 
0.621124 
0.615034 
0.609159 
0.603583 
0.598386 
0.593638 
0.589402 
0.585727 
0.582654 
0.580207 
0.578391 
0.577197 
0.576601 
0.576559 
0.577004 
0.577862 
0.579046 
0.580461 
0.582008 
0.583592 
0.585118 
0.586497 
0.58765 
0.588514 
0.589037 
0.589184 
0.588935 
0.588282 
0.587226 
0.585785 
0.583978 
0.581829 
0.579364 
0.57662 
0.573634 
0.570447 
0.567102 
0.563645 
0.560121 
0.556573 
0.553041 
0.549559 
0.546157 
0.542854 
0.539665 
0.536596 
0.53365 
0.530823 
0.528108 
0.525493 
0.522968 
0.520518 
0.518129 
0.515783 
0.513462 
0.511147 
0.508822 
0.506474 
0.504089 
0.501657 
0.499173 
0.496634 
0.494036 
0.491372 
0.48864 
0.485837 
0.48296 
0.480005 
0.476969 
0.473851 
0.470649 
0.46737 
0.464024 
0.460623 
0.457181 
0.45371 
0.450227 
0.446747 
0.443282 
0.43984 
0.436428 
0.433053 
0.429723 
0.426445 
0.423226 
0.420071 
0.41698 
0.413952 
0.410982 
0.408061 
0.405181 
0.402336 
0.399521 
0.396737 
0.393984 
0.391267 
0.388589 
0.385957 
0.383375 
0.38085 
0.378386 
0.37599 
0.373664 
0.371415 
0.369247 
0.367167 
0.365181 
0.363291 
0.361497 
0.359798 
0.358186 
0.356652 
0.355182 
0.353763 
0.352374 
0.351 
0.349625 
0.34824 
0.346846 
0.345451 
0.344068 
0.342712 
0.341396 
0.340131 
0.338921 
0.337766 
0.33666 
0.335598 
0.33457 
0.333565 
0.332574 
0.331588 
0.330603 
0.329618 
0.328636 
0.32766 
0.326699 
0.32576 
0.324845 
0.323958 
0.323099 
0.322262 
0.32144 
0.320628 
0.319823 
0.319026 
0.318239 
0.317464 
0.316703 
0.315958 
0.315231 
0.31452 
0.313823 
0.313136 
0.312457 
0.31178 
0.311104 
0.310428 
0.309754 
0.309087 
0.308432 
0.307793 
0.307175 
0.306588 
0.306041 
0.305539 
0.305088 
0.304687 
0.304329 
0.303999 
0.303686 
0.303377 
0.303057 
0.302714 
0.302343 
0.301946 
0.30153 
0.301109 
0.300699 
0.300316 
0.299968 
0.299657 
0.29938 
0.299132 
0.298908 
0.298707 
0.298533 
0.29839 
0.298282 
0.298212 
0.298186 
0.298206 
0.298274 
0.298384 
0.298524 
0.298685 
0.298855 
0.29903 
0.299203 
0.299374 
0.299546 
0.299719 
0.2999 
0.300092 
0.3003 
0.300522 
0.30076 
0.301019 
0.301307 
0.301625 
0.301974 
0.302359 
0.302782 
0.30324 
0.303726 
0.304234 
0.304752 
0.305268 
0.305767 
0.306238 
0.306673 
0.307066 
0.30742 
0.307737 
0.308026 
0.308298 
0.308565 
0.308839 
0.309133 
0.309451 
0.309797 
0.310172 
0.310575 
0.311004 
0.31145 
0.311907 
0.312365 
0.312818 
0.313264 
0.313699 
0.314119 
0.314524 
0.31492 
0.315312 
0.315706 
0.316111 
0.316534 
0.316983 
0.317461 
0.317971 
0.318514 
0.319089 
0.319693 
0.320323 
0.320979 
0.321658 
0.322358 
0.323077 
0.323812 
0.32456 
0.325318 
0.326076 
0.326826 
0.32756 
0.328272 
0.328959 
0.329619 
0.330254 
0.330862 
0.331446 
0.332006 
0.332541 
0.33305 
0.333534 
0.333996 
0.334437 
0.334861 
0.335272 
0.335676 
0.336081 
0.33649 
0.336903 
0.337323 
0.337752 
0.338189 
0.338635 
0.339091 
0.339558 
0.340042 
0.34055 
0.341087 
0.34166 
0.342272 
0.342928 
0.343626 
0.344366 
0.345144 
0.345948 
0.346769 
0.347596 
0.348415 
0.349214 
0.349981 
0.350704 
0.351376 
0.351995 
0.352558 
0.353064 
0.353513 
0.353911 
0.354267 
0.354597 
0.354927 
0.355288 
0.355725 
0.356299 
0.357087 
0.358186 
0.35971 
0.361795 
0.364585 
0.368228 
0.372864 
0.378618 
0.385593 
0.393856 
0.403433 
0.414302 
0.426402 
0.439627 
0.453836 
0.468853 
0.484483 
0.500517 
0.51674 
0.532931 
0.548876 
0.564366 
0.579208 
0.593226 
0.606259 
0.618174 
0.62886 
0.638234 
0.646241 
0.652853 
0.658067 
0.661908 
0.664423 
0.665676 
0.66575 
0.664734 
0.662724 
0.659829 
0.656161 
0.651833 
0.646956 
0.641644 
0.636004 
0.630138 
0.624142 
0.618107 
0.612123 
0.606271 
0.600628 
0.595267 
0.590253 
0.585644 
0.58149 
0.577826 
0.574676 
0.572049 
0.569943 
0.56834 
0.567208 
0.566507 
0.566187 
0.566189 
0.566447 
0.566891 
0.567447 
0.568042 
0.568605 
0.569074 
0.569401 
0.569548 
0.569495 
0.569229 
0.56875 
0.568063 
0.56718 
0.566116 
0.564886 
0.563501 
0.561969 
0.560297 
0.558494 
0.556571 
0.554542 
0.552425 
0.550242 
0.548014 
0.545763 
0.543511 
0.541276 
0.539077 
0.536931 
0.534846 
0.532823 
0.530856 
0.528936 
0.527052 
0.525186 
0.523322 
0.521439 
0.519516 
0.517535 
0.515479 
0.513333 
0.511082 
0.508715 
0.506232 
0.503632 
0.500918 
0.498096 
0.495177 
0.492173 
0.489097 
0.485966 
0.482793 
0.479589 
0.476363 
0.473119 
0.469863 
0.466603 
0.463347 
0.460096 
0.456856 
0.453629 
0.450416 
0.447218 
0.444036 
0.440868 
0.437717 
0.434589 
0.431486 
0.428411 
0.425369 
0.422366 
0.419405 
0.416496 
0.413645 
0.410862 
0.408158 
0.405543 
0.403025 
0.400614 
0.39831 
0.396108 
0.394003 
0.391986 
0.390042 
0.388155 
0.386311 
0.384499 
0.382715 
0.380953 
0.379215 
0.377502 
0.375816 
0.374162 
0.372546 
0.37097 
0.36944 
0.36796 
0.366529 
0.365145 
0.363809 
0.362519 
0.361277 
0.360078 
0.358923 
0.357814 
0.356756 
0.355752 
0.354801 
0.353901 
0.353045 
0.352221 
0.351418 
0.350626 
0.349833 
0.349029 
0.348212 
0.347378 
0.346526 
0.345659 
0.34478 
0.343894 
0.343003 
0.342108 
0.341216 
0.340328 
0.339446 
0.33857 
0.337702 
0.336841 
0.335984 
0.335125 
0.334261 
0.333392 
0.332519 
0.331639 
0.330755 
0.329871 
0.328996 
0.328136 
0.327295 
0.326473 
0.32567 
0.324886 
0.324116 
0.32336 
0.322618 
0.321895 
0.3212 
0.320539 
0.31992 
0.319349 
0.318825 
0.318346 
0.317901 
0.317481 
0.317078 
0.316688 
0.316306 
0.315932 
0.31557 
0.315225 
0.314899 
0.314598 
0.314322 
0.31407 
0.313838 
0.31362 
0.313406 
0.31319 
0.312963 
0.312727 
0.312487 
0.312246 
0.312013 
0.311797 
0.311609 
0.311455 
0.311342 
0.311269 
0.311234 
0.311236 
0.311278 
0.311356 
0.311466 
0.311606 
0.311776 
0.311973 
0.312192 
0.312431 
0.312691 
0.312969 
0.313261 
0.313567 
0.313886 
0.314221 
0.314572 
0.314936 
0.315311 
0.315699 
0.316097 
0.316499 
0.316899 
0.317292 
0.317675 
0.318048 
0.318415 
0.31878 
0.319153 
0.31954 
0.319945 
0.320371 
0.32082 
0.321291 
0.321776 
0.32227 
0.322764 
0.323249 
0.323723 
0.324185 
0.324638 
0.325093 
0.32556 
0.326047 
0.32656 
0.3271 
0.327669 
0.328259 
0.328862 
0.329468 
0.330068 
0.330652 
0.33121 
0.331735 
0.332225 
0.332676 
0.333087 
0.333459 
0.333799 
0.334119 
0.334427 
0.334735 
0.335059 
0.335409 
0.335794 
0.33622 
0.336687 
0.337193 
0.337735 
0.338304 
0.338892 
0.33949 
0.340094 
0.340694 
0.341285 
0.34186 
0.342415 
0.342952 
0.343475 
0.343989 
0.344496 
0.344999 
0.345505 
0.346017 
0.346537 
0.34707 
0.347612 
0.34816 
0.348713 
0.349267 
0.349823 
0.350386 
0.350961 
0.35155 
0.352154 
0.352775 
0.353411 
0.354058 
0.354705 
0.355342 
0.35596 
0.356548 
0.357099 
0.357609 
0.35808 
0.358516 
0.358928 
0.359325 
0.359713 
0.360098 
0.360486 
0.360879 
0.361283 
0.361709 
0.362185 
0.362754 
0.36348 
0.364454 
0.365792 
0.367629 
0.370114 
0.3734 
0.377638 
0.382964 
0.389494 
0.397309 
0.406449 
0.416914 
0.428657 
0.441588 
0.455578 
0.470466 
0.486062 
0.502153 
0.518511 
0.534904 
0.551101 
0.566876 
0.582019 
0.596339 
0.609664 
0.621851 
0.632781 
0.642366 
0.650544 
0.657285 
0.662586 
0.666466 
0.668969 
0.670162 
0.670133 
0.668982 
0.666817 
0.663754 
0.659914 
0.65542 
0.650388 
0.644931 
0.639158 
0.633171 
0.627069 
0.620949 
0.614902 
0.609013 
0.603363 
0.598031 
0.593093 
0.588613 
0.584646 
0.581238 
0.57842 
0.576205 
0.574593 
0.573562 
0.57307 
0.573063 
0.57347 
0.574206 
0.575177 
0.576288 
0.577445 
0.578563 
0.579566 
0.58039 
0.580985 
0.581312 
0.581347 
0.581074 
0.580489 
0.579598 
0.578412 
0.576945 
0.57522 
0.573262 
0.571101 
0.568767 
0.566295 
0.563723 
0.561088 
0.558423 
0.555756 
0.553108 
0.550499 
0.547944 
0.545454 
0.543032 
0.540686 
0.538419 
0.536229 
0.534112 
0.532062 
0.530063 
0.528094 
0.526135 
0.524165 
0.522159 
0.520097 
0.517964 
0.515755 
0.513465 
0.511096 
0.508646 
0.506115 
0.503503 
0.500806 
0.498018 
0.495138 
0.492164 
0.489097 
0.485938 
0.482694 
0.479383 
0.47602 
0.472622 
0.469201 
0.465765 
0.462323 
0.458881 
0.455445 
0.452017 
0.448603 
0.445204 
0.44182 
0.438455 
0.435115 
0.431799 
0.428514 
0.425264 
0.422049 
0.418873 
0.415733 
0.412629 
0.409562 
0.406534 
0.403552 
0.400626 
0.397773 
0.395006 
0.392341 
0.389791 
0.387365 
0.385062 
0.382876 
0.380799 
0.378821 
0.376929 
0.375113 
0.373363 
0.371669 
0.370024 
0.368424 
0.366866 
0.365344 
0.363853 
0.362392 
0.360956 
0.359546 
0.358161 
0.356805 
0.355482 
0.354192 
0.352937 
0.351719 
0.350537 
0.349391 
0.34828 
0.347198 
0.346144 
0.345122 
0.344137 
0.34319 
0.342281 
0.341412 
0.340582 
0.339786 
0.339013 
0.338253 
0.337491 
0.336717 
0.335923 
0.335103 
0.334251 
0.333368 
0.332458 
0.331528 
0.330589 
0.329647 
0.328706 
0.32777 
0.326839 
0.325913 
0.324987 
0.324062 
0.323142 
0.322228 
0.321322 
0.320432 
0.319564 
0.318725 
0.317918 
0.317143 
0.316397 
0.31568 
0.314983 
0.314299 
0.313617 
0.312931 
0.312238 
0.31154 
0.310838 
0.310139 
0.309448 
0.308772 
0.308121 
0.307506 
0.306934 
0.306409 
0.305936 
0.305518 
0.305156 
0.304847 
0.304583 
0.304355 
0.304154 
0.303969 
0.303796 
0.303629 
0.303469 
0.303319 
0.303185 
0.303072 
0.302983 
0.302919 
0.302875 
0.302846 
0.302826 
0.302812 
0.302806 
0.302809 
0.302824 
0.302855 
0.302908 
0.302987 
0.303092 
0.303218 
0.303361 
0.303511 
0.303664 
0.303812 
0.303955 
0.304096 
0.304233 
0.304366 
0.304494 
0.304619 
0.304746 
0.304879 
0.305026 
0.305197 
0.305401 
0.305642 
0.305925 
0.306251 
0.306623 
0.307039 
0.307497 
0.307998 
0.308542 
0.309124 
0.309738 
0.310377 
0.311036 
0.31171 
0.312394 
0.313081 
0.313761 
0.314426 
0.315068 
0.315685 
0.316276 
0.316842 
0.317385 
0.317911 
0.318433 
0.318963 
0.319513 
0.320095 
0.320722 
0.321397 
0.32212 
0.32289 
0.323702 
0.324547 
0.325418 
0.326308 
0.327205 
0.3281 
0.328982 
0.329838 
0.330658 
0.331437 
0.332173 
0.332869 
0.333535 
0.334187 
0.334843 
0.335514 
0.336209 
0.336933 
0.337682 
0.338448 
0.339219 
0.33998 
0.340717 
0.341416 
0.342071 
0.342683 
0.34326 
0.343811 
0.344354 
0.344908 
0.34549 
0.346111 
0.34678 
0.347501 
0.348277 
0.349111 
0.350003 
0.350951 
0.351951 
0.352998 
0.354083 
0.355197 
0.35633 
0.357472 
0.35861 
0.359731 
0.360826 
0.361888 
0.36291 
0.363887 
0.364814 
0.365689 
0.366507 
0.367269 
0.367975 
0.368631 
0.369243 
0.369817 
0.370358 
0.370874 
0.371369 
0.371856 
0.372347 
0.372864 
0.373438 
0.374117 
0.374967 
0.376079 
0.377565 
0.379559 
0.382207 
0.385661 
0.390067 
0.395555 
0.402228 
0.410156 
0.419371 
0.429862 
0.441578 
0.454427 
0.468287 
0.483004 
0.498397 
0.514266 
0.530394 
0.546555 
0.562529 
0.5781 
0.593062 
0.607231 
0.620442 
0.632557 
0.643462 
0.653073 
0.661335 
0.66822 
0.673721 
0.677855 
0.680659 
0.682191 
0.682522 
0.681735 
0.679921 
0.677178 
0.67361 
0.669325 
0.664428 
0.659021 
0.653212 
0.647107 
0.640815 
0.634438 
0.628075 
0.621823 
0.615772 
0.610003 
0.604586 
0.599579 
0.59503 
0.590978 
0.58745 
0.58446 
0.582014 
0.580099 
0.578689 
0.577748 
0.577224 
0.577056 
0.577169 
0.577484 
0.57792 
0.578397 
0.578843 
0.579198 
0.579414 
0.579455 
0.5793 
0.578937 
0.578365 
0.57759 
0.576619 
0.575465 
0.574141 
0.572661 
0.571032 
0.569263 
0.567368 
0.565361 
0.563255 
0.561067 
0.558815 
0.556518 
0.554199 
0.551881 
0.549583 
0.547315 
0.545084 
0.542887 
0.540714 
0.53855 
0.536378 
0.534183 
0.531953 
0.529674 
0.52734 
0.524944 
0.522486 
0.519968 
0.517389 
0.514755 
0.512067 
0.509329 
0.506538 
0.503695 
0.5008 
0.497851 
0.494843 
0.491775 
0.488645 
0.485451 
0.482195 
0.478879 
0.475508 
0.47209 
0.468635 
0.465151 
0.461648 
0.458132 
0.45461 
0.451089 
0.44758 
0.444093 
0.440638 
0.437224 
0.433858 
0.430553 
0.427319 
0.424164 
0.421092 
0.418105 
0.415205 
0.412387 
0.409646 
0.406979 
0.40438 
0.401846 
0.399371 
0.396957 
0.394603 
0.392314 
0.390098 
0.387964 
0.38592 
0.383978 
0.382145 
0.380425 
0.378813 
0.377303 
0.375881 
0.374536 
0.373256 
0.372025 
0.370828 
0.369654 
0.368493 
0.36734 
0.366187 
0.365028 
0.36386 
0.362681 
0.361492 
0.36029 
0.359075 
0.357847 
0.356608 
0.355362 
0.354118 
0.352881 
0.35166 
0.350464 
0.349301 
0.348182 
0.347109 
0.346085 
0.345107 
0.344175 
0.343285 
0.342432 
0.341609 
0.340812 
0.340033 
0.339267 
0.338507 
0.337748 
0.336987 
0.336217 
0.335434 
0.33463 
0.333805 
0.332963 
0.332105 
0.331231 
0.330347 
0.329459 
0.328573 
0.327693 
0.326819 
0.325954 
0.325098 
0.324245 
0.323392 
0.322536 
0.321674 
0.320804 
0.31993 
0.319054 
0.318183 
0.317323 
0.316482 
0.315664 
0.314874 
0.314115 
0.313388 
0.312697 
0.312041 
0.311421 
0.31084 
0.3103 
0.309804 
0.309352 
0.308945 
0.308581 
0.308259 
0.307978 
0.307733 
0.30752 
0.307337 
0.307182 
0.307049 
0.306934 
0.306833 
0.306744 
0.306668 
0.30661 
0.306579 
0.306584 
0.306637 
0.30674 
0.306893 
0.307095 
0.307339 
0.307611 
0.307896 
0.308178 
0.30844 
0.308669 
0.308858 
0.309007 
0.309123 
0.309211 
0.309281 
0.309346 
0.309418 
0.309505 
0.309612 
0.309742 
0.309899 
0.310082 
0.310284 
0.310503 
0.31074 
0.311 
0.311284 
0.311597 
0.311942 
0.312323 
0.312741 
0.313192 
0.313667 
0.314152 
0.314632 
0.315096 
0.315533 
0.315935 
0.316301 
0.316636 
0.316947 
0.317242 
0.317536 
0.317839 
0.318158 
0.318497 
0.318858 
0.319238 
0.319635 
0.320046 
0.320472 
0.32091 
0.321357 
0.321818 
0.322289 
0.322769 
0.323254 
0.32374 
0.324222 
0.324698 
0.325169 
0.325638 
0.326108 
0.326584 
0.327069 
0.327568 
0.328079 
0.3286 
0.329129 
0.329662 
0.3302 
0.33074 
0.331284 
0.331835 
0.332394 
0.332955 
0.333515 
0.334075 
0.33463 
0.335179 
0.335717 
0.336246 
0.336771 
0.337299 
0.337835 
0.338382 
0.338944 
0.339524 
0.340125 
0.34075 
0.341397 
0.342068 
0.342762 
0.343478 
0.344216 
0.344973 
0.345744 
0.346524 
0.347306 
0.348087 
0.348861 
0.349619 
0.350356 
0.351069 
0.351752 
0.3524 
0.353006 
0.353569 
0.354089 
0.354568 
0.355009 
0.355423 
0.355827 
0.356251 
0.356737 
0.357342 
0.358142 
0.359236 
0.360745 
0.362806 
0.365572 
0.369198 
0.373842 
0.379645 
0.386718 
0.395136 
0.404932 
0.416087 
0.428534 
0.44216 
0.456807 
0.472287 
0.488393 
0.504904 
0.521593 
0.538229 
0.554591 
0.570469 
0.585663 
0.59999 
0.61329 
0.625426 
0.636282 
0.64577 
0.653836 
0.660455 
0.665629 
0.669385 
0.67177 
0.672854 
0.672722 
0.671474 
0.66922 
0.666075 
0.662165 
0.657612 
0.652545 
0.647086 
0.641355 
0.635469 
0.62954 
0.623679 
0.617993 
0.612582 
0.607539 
0.602948 
0.598881 
0.595393 
0.59252 
0.590288 
0.588702 
0.587752 
0.587412 
0.587643 
0.588393 
0.589599 
0.591179 
0.593043 
0.59509 
0.597213 
0.599307 
0.601272 
0.603019 
0.604472 
0.605569 
0.606262 
0.606515 
0.60631 
0.60564 
0.604503 
0.602911 
0.600884 
0.598456 
0.595673 
0.592584 
0.589241 
0.585701 
0.58202 
0.578249 
0.574437 
0.570625 
0.56685 
0.563143 
0.559532 
0.556039 
0.552676 
0.549454 
0.546378 
0.543447 
0.540659 
0.53801 
0.535485 
0.53307 
0.530748 
0.528504 
0.526316 
0.524158 
0.522008 
0.51984 
0.517627 
0.515346 
0.512974 
0.510494 
0.50789 
0.505155 
0.50229 
0.499304 
0.496211 
0.49303 
0.489786 
0.486504 
0.483203 
0.479898 
0.4766 
0.473311 
0.470029 
0.466744 
0.463444 
0.460116 
0.456753 
0.45335 
0.449906 
0.446427 
0.44292 
0.439395 
0.435865 
0.432344 
0.428849 
0.425399 
0.422013 
0.418709 
0.415503 
0.412404 
0.409413 
0.406529 
0.403748 
0.401059 
0.398451 
0.395914 
0.393438 
0.391019 
0.388656 
0.386353 
0.384108 
0.381923 
0.379796 
0.377727 
0.375713 
0.373753 
0.371846 
0.369991 
0.368189 
0.366443 
0.364752 
0.363115 
0.361533 
0.360006 
0.358531 
0.357105 
0.355723 
0.354378 
0.353065 
0.351777 
0.350508 
0.349252 
0.348006 
0.346769 
0.345539 
0.344321 
0.343117 
0.341932 
0.340763 
0.339615 
0.338491 
0.337395 
0.336327 
0.335287 
0.334275 
0.333291 
0.332331 
0.331392 
0.330466 
0.329544 
0.32862 
0.327688 
0.326743 
0.325778 
0.32479 
0.32378 
0.322751 
0.321708 
0.320655 
0.3196 
0.318548 
0.317503 
0.316463 
0.315432 
0.314415 
0.313415 
0.312433 
0.311468 
0.310524 
0.309607 
0.308717 
0.307854 
0.307021 
0.30622 
0.305452 
0.304717 
0.30402 
0.303366 
0.302758 
0.3022 
0.301688 
0.301217 
0.300778 
0.300367 
0.299977 
0.299605 
0.299251 
0.298917 
0.298604 
0.298319 
0.29807 
0.297864 
0.297705 
0.297592 
0.297522 
0.29749 
0.297486 
0.2975 
0.297522 
0.297543 
0.297558 
0.297569 
0.297581 
0.297599 
0.297635 
0.297695 
0.297785 
0.29791 
0.298072 
0.298267 
0.298487 
0.298723 
0.298967 
0.299215 
0.299462 
0.299707 
0.299951 
0.300197 
0.300445 
0.300696 
0.300947 
0.3012 
0.301454 
0.30171 
0.30197 
0.302232 
0.30249 
0.302742 
0.302987 
0.303228 
0.303466 
0.303709 
0.30396 
0.304223 
0.304501 
0.304796 
0.305107 
0.305431 
0.305765 
0.306105 
0.306449 
0.306796 
0.307147 
0.307506 
0.307883 
0.308284 
0.308714 
0.309179 
0.309675 
0.310199 
0.310743 
0.311297 
0.311852 
0.312399 
0.312931 
0.313441 
0.313926 
0.31439 
0.314842 
0.315291 
0.315745 
0.316209 
0.316688 
0.317185 
0.3177 
0.318227 
0.318758 
0.319282 
0.319788 
0.320267 
0.32071 
0.321116 
0.321485 
0.321823 
0.322143 
0.322459 
0.322782 
0.323125 
0.323495 
0.323894 
0.324316 
0.324755 
0.325199 
0.325643 
0.32608 
0.326511 
0.326941 
0.327381 
0.327843 
0.328338 
0.328874 
0.329457 
0.330089 
0.330769 
0.331489 
0.332238 
0.333002 
0.333773 
0.334542 
0.335303 
0.336052 
0.336786 
0.3375 
0.338191 
0.338854 
0.339488 
0.340086 
0.340642 
0.341153 
0.341619 
0.342044 
0.342434 
0.342799 
0.343147 
0.343487 
0.343829 
0.344181 
0.344552 
0.344942 
0.345352 
0.345782 
0.346237 
0.346727 
0.347271 
0.347907 
0.348696 
0.349715 
0.351064 
0.352861 
0.355236 
0.358327 
0.36227 
0.367197 
0.37322 
0.380424 
0.388864 
0.398557 
0.409477 
0.421558 
0.434695 
0.448744 
0.463531 
0.478861 
0.494522 
0.510294 
0.525956 
0.541295 
0.556111 
0.570218 
0.583452 
0.595674 
0.606768 
0.616641 
0.625225 
0.632477 
0.638383 
0.642952 
0.646218 
0.648231 
0.649059 
0.648783 
0.647496 
0.645298 
0.642299 
0.638611 
0.63434 
0.629595 
0.624486 
0.619114 
0.613577 
0.607977 
0.602408 
0.596962 
0.591725 
0.586781 
0.582202 
0.578049 
0.574375 
0.571223 
0.568624 
0.566592 
0.565128 
0.564212 
0.563811 
0.563877 
0.564351 
0.565159 
0.566216 
0.567433 
0.568723 
0.57 
0.571185 
0.572213 
0.573027 
0.573587 
0.573861 
0.573834 
0.573502 
0.572868 
0.571948 
0.570766 
0.569352 
0.567741 
0.56597 
0.564074 
0.562088 
0.560042 
0.557962 
0.555865 
0.553766 
0.551674 
0.549598 
0.547547 
0.545528 
0.543547 
0.54161 
0.539722 
0.537886 
0.536103 
0.534369 
0.532673 
0.530999 
0.529331 
0.527647 
0.525926 
0.52414 
0.522267 
0.520289 
0.518189 
0.515959 
0.513596 
0.511098 
0.508468 
0.505711 
0.50284 
0.499868 
0.49681 
0.493681 
0.490492 
0.487256 
0.483986 
0.480695 
0.477393 
0.474089 
0.470793 
0.467512 
0.464246 
0.460995 
0.457759 
0.454532 
0.451311 
0.448093 
0.444876 
0.44166 
0.438455 
0.435268 
0.43211 
0.428998 
0.425949 
0.422979 
0.420101 
0.417322 
0.414653 
0.412103 
0.409679 
0.407384 
0.405214 
0.403165 
0.401225 
0.399382 
0.397621 
0.39593 
0.394292 
0.39269 
0.391113 
0.389555 
0.388011 
0.38648 
0.384966 
0.383477 
0.382017 
0.38059 
0.379195 
0.37783 
0.376487 
0.375163 
0.373853 
0.372548 
0.371244 
0.369941 
0.368646 
0.36737 
0.366127 
0.364937 
0.363822 
0.362801 
0.361891 
0.361103 
0.360441 
0.359899 
0.359462 
0.359106 
0.358802 
0.358517 
0.358218 
0.357878 
0.357471 
0.356978 
0.356385 
0.355684 
0.354876 
0.353964 
0.352956 
0.351865 
0.350704 
0.349484 
0.34822 
0.346926 
0.345611 
0.344287 
0.342968 
0.341664 
0.340384 
0.339135 
0.337926 
0.336763 
0.335653 
0.3346 
0.333609 
0.332678 
0.331808 
0.330998 
0.330243 
0.329543 
0.328895 
0.328298 
0.327741 
0.32722 
0.326727 
0.326256 
0.325803 
0.325369 
0.324956 
0.324569 
0.324219 
0.323913 
0.323658 
0.323454 
0.323295 
0.323176 
0.323087 
0.323015 
0.322944 
0.322862 
0.322763 
0.322642 
0.322496 
0.322327 
0.32214 
0.321941 
0.321737 
0.321536 
0.321346 
0.321174 
0.321031 
0.320929 
0.320878 
0.320884 
0.320943 
0.321051 
0.321201 
0.321386 
0.321592 
0.321804 
0.322011 
0.322204 
0.322382 
0.322552 
0.322723 
0.322902 
0.323094 
0.323309 
0.32355 
0.323816 
0.324105 
0.324409 
0.324719 
0.325032 
0.32535 
0.325676 
0.326016 
0.326377 
0.326767 
0.32719 
0.32764 
0.328105 
0.328572 
0.329028 
0.329464 
0.329873 
0.330254 
0.330613 
0.330959 
0.331311 
0.331681 
0.332082 
0.33252 
0.333 
0.333522 
0.33408 
0.334663 
0.335261 
0.335864 
0.336466 
0.337064 
0.337657 
0.33825 
0.338847 
0.339457 
0.340084 
0.340731 
0.341401 
0.342094 
0.342808 
0.343536 
0.344278 
0.345033 
0.3458 
0.346576 
0.347354 
0.348128 
0.348895 
0.349653 
0.350395 
0.351119 
0.351823 
0.352502 
0.353152 
0.353768 
0.354349 
0.354889 
0.355385 
0.35583 
0.356217 
0.356544 
0.356817 
0.357045 
0.357235 
0.357401 
0.357559 
0.357727 
0.357915 
0.358133 
0.358388 
0.358688 
0.359038 
0.359439 
0.359899 
0.360422 
0.361008 
0.361656 
0.362359 
0.363101 
0.363862 
0.364616 
0.365329 
0.365972 
0.366522 
0.366962 
0.367281 
0.367479 
0.367567 
0.367563 
0.367489 
0.367371 
0.367248 
0.367163 
0.367173 
0.367343 
0.367754 
0.3685 
0.369693 
0.371454 
0.373911 
0.37719 
0.381408 
0.386666 
0.39304 
0.400567 
0.409251 
0.419053 
0.429898 
0.441675 
0.454241 
0.467435 
0.481074 
0.494972 
0.508942 
0.522801 
0.536374 
0.549497 
0.562016 
0.57379 
0.584692 
0.594616 
0.603477 
0.61121 
0.617774 
0.62315 
0.627338 
0.63036 
0.632256 
0.633078 
0.632893 
0.631772 
0.629803 
0.627078 
0.623694 
0.61975 
0.61534 
0.61056 
0.605503 
0.600256 
0.594897 
